velocity,density,temperature,si,ca,si0,si1,si2,si3,ca0,ca1,ca2,ca3
12912.5,1.22608746524337e-13,14535.02762910343,0.5,0.0,9.731386010451277e-15,3.749623619865854e-06,0.46455056620827073,0.5354274973469716,,,,
13087.5,1.0971637558160338e-13,14556.779073015457,0.5,0.0,1.2911821855317594e-14,4.8500460312036885e-06,0.504735786338503,0.4952449481551564,,,,
13337.5,9.817964388351419e-14,13987.618903477136,0.5,0.0,3.7489044175363945e-14,1.2194573391257788e-05,0.7488083335762588,0.2511777768658226,,,,
13587.5,8.785600528632412e-14,13119.792801798381,0.5,0.0,1.4163161922930116e-13,3.446747902404302e-05,0.9438481662282612,0.05611733124737944,,,,
13837.5,7.861790244450754e-14,11959.228709525489,0.5,0.0,9.231281650273834e-13,0.00012916270978559873,0.9959603114790437,0.003910525751544681,,,,
14087.5,7.035119073113851e-14,11059.709793150096,0.04113110539845759,0.0005141388174807199,4.881212768627195e-12,0.0004057581969941055,0.9992659558335704,0.00032828596439137437,2.9713210524028137e-15,2.6196078214415995e-06,0.9999973803827401,9.435546126746201e-12
14337.5,6.295372788383007e-14,10928.958637429248,0.04113110539845759,0.0005141388174807199,6.285979652395482e-12,0.0004963180500612668,0.9992872104650404,0.00021647147855127815,3.435046955714443e-15,2.982781598681792e-06,0.9999970172134081,4.989823066615873e-12
14587.5,5.633411195010759e-14,10873.555796877918,0.04113110539845759,0.0005141388174807199,7.252790348717705e-12,0.0005640231794434037,0.9992626098618821,0.0001733669513848739,3.764032029640661e-15,3.2558056526925506e-06,0.9999967441907129,3.630699840590878e-12
14837.5,5.04105519384562e-14,10757.585742028972,0.04113110539845759,0.0005141388174807199,8.82911732676586e-12,0.0006647188376491658,0.9992144962778531,0.00012078487565302246,4.159983882432746e-15,3.5975069607431568e-06,0.9999964024909682,2.06685909522359e-12
15087.5,4.5109857220975285e-14,10697.201213483557,0.04113110539845759,0.0005141388174807199,1.0105125796541049e-11,0.0007514902971893033,0.9991523898836439,9.611980905261815e-05,4.505588310622771e-15,3.898335693437646e-06,0.999996101662825,1.476959350715911e-12
15337.5,4.0366533200848204e-14,10585.388516325163,0.04113110539845759,0.0005141388174807199,1.2356288865015532e-11,0.0008880093141774541,0.9990451678896765,6.68227837860972e-05,5.010374211228103e-15,4.319105368485986e-06,0.9999956808937868,8.397467801993746e-13
15587.5,3.6121972070829574e-14,10512.348365660157,0.04113110539845759,0.0005141388174807199,1.4140824161775144e-11,0.0010041263401180738,0.998944062921226,5.181072451314391e-05,5.373320297445467e-15,4.6568853234295605e-06,0.9999953431141018,5.694059809018048e-13
15837.5,3.23237286638818e-14,10442.046967541972,0.04113110539845759,0.0005141388174807199,1.5929239325293167e-11,0.001123724487792478,0.9988355561150297,4.071938124741682e-05,5.6847465379451914e-15,4.976936024930945e-06,0.9999950230635768,3.926654143891442e-13
16087.5,2.892487244847865e-14,10340.240436772532,0.04113110539845759,0.0005141388174807199,1.8684271451921478e-11,0.001291966865666389,0.9986786794011859,2.9353714462791804e-05,6.106051042054035e-15,5.38948933999381e-06,0.9999946105104203,2.3367640190891966e-13
16337.5,2.5883407661926743e-14,10260.253987194337,0.04113110539845759,0.0005141388174807199,2.1460500040836537e-11,0.0014645116529218045,0.9985132187938726,2.2269531744851452e-05,6.529283858513937e-15,5.802568747398343e-06,0.999994197431094,1.520420212333414e-13
16587.5,2.316175441695767e-14,10185.416258240371,0.04113110539845759,0.0005141388174807199,2.4638653250864195e-11,0.0016594398915969772,0.998323535120697,1.702496306703869e-05,7.0034939326963706e-15,6.253350564402046e-06,0.999993746649328,1.004520574375778e-13
16837.5,2.0726284370221296e-14,10102.286716706763,0.04113110539845759,0.0005141388174807199,2.8069498803341808e-11,0.0018711855827858014,0.9981159665624104,1.2847826734166314e-05,7.404575097513616e-15,6.688041550758522e-06,0.9999933119583776,6.432023006559585e-14
17087.5,1.8546905215468798e-14,10000.776384944522,0.04113110539845759,0.0005141388174807199,3.2789819900101795e-11,0.002145427058779816,0.9978453996942946,9.17321413569865e-06,7.900801104115114e-15,7.211271976498464e-06,0.9999927887279784,3.7452059564823925e-14
17337.5,1.659668886748517e-14,9895.618977505472,0.04113110539845759,0.0005141388174807199,3.947841094093108e-11,0.002508482768368038,0.9974851691002865,6.348091867055366e-06,8.64952141832229e-15,7.89846311300102e-06,0.9999921015368575,2.089072308591546e-14
17587.5,1.4851538742666926e-14,9768.681663347157,0.04113110539845759,0.0005141388174807199,4.9483276570310146e-11,0.0030119317667482936,0.9969839968268043,4.071356964166885e-06,9.66052092250915e-15,8.784695073797077e-06,0.9999912153049062,1.026831150802882e-14
17837.5,1.328989202521324e-14,9674.705780478494,0.04113110539845759,0.0005141388174807199,5.980602303565753e-11,0.003529548302537671,0.9964676041998384,2.8474378179547246e-06,1.0689178736293487e-14,9.66747706858671e-06,0.9999903325229149,5.869555626648157e-15
18087.5,1.1892453240175879e-14,9576.409741180214,0.04113110539845759,0.0005141388174807199,7.07042012345536e-11,0.004077401054308084,0.9959206044310879,1.9944438998418123e-06,1.1519809438489704e-14,1.0481671222795864e-05,0.9999895183287624,3.3160584174925977e-15
18337.5,1.0641955841435824e-14,9462.436121393017,0.04113110539845759,0.0005141388174807199,8.630781288052391e-11,0.004810669814516904,0.9951880146572957,1.3154418796070316e-06,1.2619149626647912e-14,1.1506329938610876e-05,0.9999884936700469,1.6956587529860295e-15
18587.5,9.522948868823592e-15,9269.933452785925,0.04113110539845759,0.0005141388174807199,1.3054199045990313e-10,0.006533576954620896,0.9934657976417579,6.252730793457247e-07,1.5847144125421847e-14,1.3886049707919927e-05,0.9999861139502757,5.174476354444368e-16
18837.5,8.521606038349507e-15,9093.55013451904,0.04113110539845759,0.0005141388174807199,1.9800064415120618e-10,0.008885777496661097,0.9911139199910585,3.023142797336388e-07,2.015136893797046e-14,1.685075662487247e-05,0.9999831492433547,1.64045349052182e-16
19087.5,7.625554906691999e-15,8930.118353812428,0.010000000000000002,0.0005000000000000001,3.0035479882568315e-10,0.012024815668117052,0.9879750350483767,1.4898315138648022e-07,2.5845168365008002e-14,2.0465417039895776e-05,0.9999795345829343,5.391672479034887e-17
19337.5,6.82372399912506e-15,8888.18444555321,0.010000000000000002,0.0005000000000000001,3.079980170402143e-10,0.012649734181502696,0.9873501382305927,1.2727990645868347e-07,2.5357798156099582e-14,2.080280392443137e-05,0.9999791971960502,4.139362709079958e-17
19587.5,6.1062060120205104e-15,8807.090477359945,0.010000000000000002,0.0005000000000000001,3.5177099207600856e-10,0.014280653222776638,0.9857192549466882,9.147876411345261e-08,2.658209308780224e-14,2.2156031942612935e-05,0.9999778439680308,2.4147884588382925e-17
19837.5,5.464135399675648e-15,8795.789595857213,0.010000000000000002,0.0005000000000000001,3.366966457721157e-10,0.014358465059443336,0.9856414463398107,8.826404952257757e-08,2.5130684721927413e-14,2.190181349684598e-05,0.9999780981864781,2.2610374374256523e-17
20087.5,4.8895788329468825e-15,8758.342769010824,0.010000000000000002,0.0005000000000000001,3.3260464005791604e-10,0.01474206204733671,0.98525785965571,7.796434866286154e-08,2.3840055338444223e-14,2.1808989839683484e-05,0.9999781910101364,1.809952621359322e-17
20337.5,4.375437176212979e-15,8736.427924935319,0.010000000000000002,0.0005000000000000001,3.1514182907896664e-10,0.01472819586765695,0.9852717301420068,7.367519443432402e-08,2.2047463704151018e-14,2.1327948223364907e-05,0.9999786720517546,1.613331827041174e-17
20587.5,3.915357771509436e-15,8688.520212768417,0.010000000000000002,0.0005000000000000001,3.2587800794485073e-10,0.01558021538713472,0.9844197229745091,6.13124780369431e-08,2.1643782297538817e-14,2.1714814006665647e-05,0.9999782851859716,1.1820281748513915e-17
20837.5,3.5036559460300107e-15,8680.590544180941,0.010000000000000002,0.0005000000000000001,2.9554198089273977e-10,0.015126542510400943,0.9848733953453326,6.18487245355554e-08,1.943907353526136e-14,2.0815146600193163e-05,0.9999791848533803,1.1662577799913147e-17
21087.5,3.135244773153636e-15,8673.358889994828,0.010000000000000002,0.0005000000000000001,2.692275107103288e-10,0.014728636963223433,0.9852713004593718,6.23081772145056e-08,1.7546883459096402e-14,2.000849816731315e-05,0.9999799915018152,1.1513368131461307e-17
21337.5,2.8055722191345024e-15,8653.332589773707,0.010000000000000002,0.0005000000000000001,2.5197567410150273e-10,0.01459808058486364,0.9854018595663538,5.95968067859441e-08,1.6050566658636322e-14,1.9434285372979873e-05,0.9999805657146109,1.0427809998095002e-17
21587.5,2.5105648988489894e-15,8620.572084648818,0.010000000000000002,0.0005000000000000001,2.4721434660841774e-10,0.014921667107138941,0.9850782792750312,5.337061556500118e-08,1.5181034194335532e-14,1.9300401852637973e-05,0.9999806995981323,8.543135437531123e-18
21837.5,2.246577745653984e-15,8599.981759830956,0.010000000000000002,0.0005000000000000001,2.31683224656018e-10,0.01480272509289602,0.9851972237843662,5.089105447378812e-08,1.3892237023763126e-14,1.8753421064622762e-05,0.9999812465789215,7.696927103951371e-18
22087.5,2.0103489734846856e-15,8600.327090625953,0.010000000000000002,0.0005000000000000001,2.0058794755606613e-10,0.013943596044549858,0.9860563496314282,5.4123434008846075e-08,1.200853747286386e-14,1.754762011027926e-05,0.9999824523798777,8.183709524209195e-18
22337.5,1.7989597747103243e-15,8596.703497355831,0.010000000000000002,0.0005000000000000001,1.770553757935269e-10,0.01330103451340267,0.9866989090991043,5.621043766258149e-08,1.0536417608379616e-14,1.6577023565252798e-05,0.9999834229764243,8.40679014750045e-18
22587.5,1.609798255780531e-15,8559.82011362061,0.010000000000000002,0.0005000000000000001,1.7443810399157197e-10,0.01363435492126419,0.9863655953157329,4.958856485101928e-08,9.958209918922973e-15,1.6470140117748397e-05,0.9999835298598723,6.700523208830156e-18
22837.5,1.4405271650564395e-15,8548.990104372591,0.010000000000000002,0.0005000000000000001,1.5641939485152215e-10,0.013141451538155477,0.986858498332934,4.9972491229241487e-08,8.807034992883709e-15,1.5655041316103786e-05,0.999984344958675,6.547614681255655e-18
23087.5,1.2890550140765279e-15,8532.912495950133,0.010000000000000002,0.0005000000000000001,1.4189174272312765e-10,0.012762811570598455,0.9872371390260425,4.9261467510718105e-08,7.835160140650162e-15,1.4948398504283424e-05,0.999985051601488,6.168504956434933e-18
23337.5,1.1535102354357457e-15,8513.71194810128,0.010000000000000002,0.0005000000000000001,1.3112426860416444e-10,0.012546238247388401,0.987453714080325,4.7541162400173934e-08,7.075930405855617e-15,1.440896189472445e-05,0.9999855910380983,5.639735827095727e-18
23587.5,1.0322180579765649e-15,8496.542871562628,0.010000000000000002,0.0005000000000000001,1.2052338617411525e-10,0.012289945302286776,0.9877100082861047,4.629108519859274e-08,6.3689262888756656e-15,1.3855935778924232e-05,0.9999861440642147,5.230606360494671e-18
23837.5,9.236798135652637e-16,8500.404936176317,0.010000000000000002,0.0005000000000000001,1.0278720591908203e-10,0.011462911082009032,0.9885370386214374,5.0193766473202583e-08,5.440142286633835e-15,1.286482563736948e-05,0.9999871351743572,5.726511190448573e-18
24087.5,8.265544197709907e-16,8481.209285588622,0.010000000000000002,0.0005000000000000001,9.467621841478476e-11,0.0112444561188387,0.9887554952601779,4.8526307232128554e-08,4.895661857088058e-15,1.2375011099451664e-05,0.9999876249888956,5.242840941362994e-18
24337.5,7.396418096504039e-16,8475.386365241935,0.010000000000000002,0.0005000000000000001,8.334281939159924e-11,0.010707612517547954,0.9892923372415048,5.015760430975858e-08,4.270957818221538e-15,1.1656413714294873e-05,0.9999883435862814,5.3261925391965625e-18
24587.5,6.618681038987115e-16,8496.68622592821,0.010000000000000002,0.0005000000000000001,6.713907291460635e-11,0.009620304632335428,0.9903796360531613,5.924736434147041e-08,3.5093169026377207e-15,1.0540546115313811e-05,0.9999894594538812,6.669560955363591e-18
24837.5,5.92272342156443e-16,8468.638871686942,0.010000000000000002,0.0005000000000000001,6.304225838636668e-11,0.009557123096028793,0.9904428216534442,5.518748474735364e-08,3.189256066591084e-15,1.0216779265189271e-05,0.9999897832207317,5.73922443873148e-18
25087.5,5.299946095259515e-16,8454.740768266558,0.010000000000000002,0.0005000000000000001,5.656437400049646e-11,0.009215470052001466,0.9907844748182553,5.507317893248756e-08,2.811289347174744e-15,9.69866460888416e-06,0.9999903013353884,5.503053337282839e-18
25337.5,4.742654115906186e-16,8441.216472355309,0.010000000000000002,0.0005000000000000001,5.109324156190922e-11,0.008924871666056532,0.9910750735253524,5.47574977499536e-08,2.4949851288240376e-15,9.242603444520202e-06,0.999990757396553,5.2621987663476075e-18
25587.5,4.2439616665611605e-16,8417.538464858948,0.010000000000000002,0.0005000000000000001,4.7544698354489223e-11,0.008813898660131873,0.9911860494080412,5.188428216188017e-08,2.256498655764143e-15,8.925390988757618e-06,0.9999910746090089,4.658885292679869e-18
25837.5,3.7977069773723515e-16,8409.7639336818,0.010000000000000002,0.0005000000000000001,4.164817980883198e-11,0.008366251790502639,0.9916336946770125,5.3490836742464566e-08,1.954451580484921e-15,8.37526604140659e-06,0.9999916247339566,4.693976727774545e-18
26087.5,3.3983761916655283e-16,8414.541430523788,0.010000000000000002,0.0005000000000000001,3.50425483745573e-11,0.007734048155199011,0.9922658931529055,5.865685305533037e-08,1.6478007070554433e-15,7.715094667776705e-06,0.9999922849053307,5.212948494850709e-18
26337.5,3.041035237550076e-16,8390.751401121865,0.010000000000000002,0.0005000000000000001,3.2360354540010635e-11,0.00759994443778156,0.9923999997054365,5.582442164429164e-08,1.4788463587820398e-15,7.41715409702465e-06,0.9999925828459014,4.6322898446190534e-18
26587.5,2.7212688632593404e-16,8377.482886544836,0.010000000000000002,0.0005000000000000001,2.898244690028717e-11,0.007319471114549702,0.992680473031235,5.582523297885134e-08,1.3014696145145428e-15,7.033452237715659e-06,0.9999929665477609,4.456026137154434e-18
26837.5,2.435126082955436e-16,8354.309811227478,0.010000000000000002,0.0005000000000000001,2.6761953968985787e-11,0.007192173938676485,0.9928077728430961,5.3191465566892525e-08,1.168393210084887e-15,6.7623669611998826e-06,0.9999932376330377,3.968991774186715e-18
27087.5,2.1790713589349504e-16,8352.797713436818,0.010000000000000002,0.0005000000000000001,2.293612908457764e-11,0.006729508221138558,0.9932704351503765,5.660554871669982e-08,9.96519406638208e-16,6.2799754640625245e-06,0.9999937200245349,4.201890161141821e-18
27337.5,1.9499409170500421e-16,8336.245885437766,0.010000000000000002,0.0005000000000000001,2.0554049547089093e-11,0.006483928325489652,0.9935160156098061,5.6044150268447906e-08,8.745949588862962e-16,5.950040811459e-06,0.9999940499591876,3.9628218141992415e-18
27587.5,1.744903655584904e-16,8333.66157937629,0.010000000000000002,0.0005000000000000001,1.762069002265632e-11,0.006067944729722724,0.9939319958081426,5.944451385914898e-08,7.453089266845642e-16,5.524146067799756e-06,0.9999944758539315,4.168652948046901e-18
27837.5,1.5614261645833403e-16,8309.73030310458,0.010000000000000002,0.0005000000000000001,1.6262893258328515e-11,0.005960663153651338,0.9940392803341858,5.6495900049298416e-08,6.681360277211273e-16,5.307860966163204e-06,0.9999946921390332,3.692925894917052e-18
28087.5,1.3972414234115304e-16,8284.645490940202,0.010000000000000002,0.0005000000000000001,1.508326727115629e-11,0.005874116872641175,0.9941258297912073,5.332106826347679e-08,6.010424597207835e-16,5.11187310769339e-06,0.9999948881268916,3.236533004874164e-18
28337.5,1.2503207897877403e-16,8272.1350007835,0.010000000000000002,0.0005000000000000001,1.3326057694221028e-11,0.005607183071511218,0.994392763044073,5.387108976554646e-08,5.222200178094114e-16,4.810739810540247e-06,0.999995189260189,3.1496461892058727e-18
28587.5,1.118848934179498e-16,8271.743290786284,0.010000000000000002,0.0005000000000000001,1.1331951140892631e-11,0.005219488813880383,0.9947804533767691,5.779801860738373e-08,4.42411610213614e-16,4.4488173509409665e-06,0.9999955511826487,3.372901114744159e-18
28837.5,1.0012014098614752e-16,8260.909322509131,0.010000000000000002,0.0005000000000000001,9.981327651029497e-12,0.0049722404745224,0.9950277007319873,5.878350893495656e-08,3.8383442973126636e-16,4.181580180737002e-06,0.9999958184198189,3.32030984448534e-18
29087.5,8.959245814929566e-17,8247.047822836801,0.010000000000000002,0.0005000000000000001,8.869076890789361e-12,0.004764099779294941,0.9952358412956352,5.891620067417509e-08,3.348503889785732e-16,3.945776423210467e-06,0.9999960542235765,3.192049902945291e-18
29337.5,8.01717664215421e-17,8231.192161457537,0.010000000000000002,0.0005000000000000001,7.94171082031034e-12,0.004587831445965151,0.9954121101463169,5.8399776313125675e-08,2.937086877458191e-16,3.7368174384887786e-06,0.9999962631825611,3.0166689679006447e-18
29587.5,7.174166513479958e-17,8218.941346194399,0.010000000000000002,0.0005000000000000001,7.022942813732905e-12,0.004381910673352295,0.9956180303451253,5.897449949294934e-08,2.554068292004395e-16,3.5182547442569297e-06,0.9999964817452556,2.9353237780421933e-18
29837.5,6.41979932093744e-17,8193.180694844037,0.010000000000000002,0.0005000000000000001,6.522550626265168e-12,0.004322332054462096,0.9956776125300846,5.5408930847959695e-08,2.2980119450990837e-16,3.3895917367326134e-06,0.999996610408263,2.5516810057704348e-18
30087.5,5.744754215513362e-17,8178.235907829004,0.010000000000000002,0.0005000000000000001,5.812418637075749e-12,0.0041492678071179245,0.9958506769742983,5.521277130974097e-08,2.007728526068252e-16,3.2021621029797355e-06,0.9999967978378969,2.4294066806907546e-18
30337.5,5.140690440124152e-17,8164.294282516018,0.010000000000000002,0.0005000000000000001,5.163430886763575e-12,0.003974944497329733,0.9960250002126649,5.528484178513475e-08,1.7504276254078783e-16,3.0207058557981044e-06,0.999996979294144,2.3309287136061428e-18
30587.5,4.600144272459923e-17,8152.665756383181,0.010000000000000002,0.0005000000000000001,4.54508417852878e-12,0.0037850877202414727,0.9962148562068742,5.6068339149630046e-08,1.5160453352442408e-16,2.8370530387808865e-06,0.9999971629469611,2.2808203033090875e-18
30837.5,4.1164368043400064e-17,8142.147289183728,0.010000000000000002,0.0005000000000000001,3.9848693364066665e-12,0.0035948540386580292,0.996405088762788,5.71945691879725e-08,1.3093633977466389e-16,2.6595200821061187e-06,0.9999973404799178,2.252186650658861e-18
31087.5,3.6835914181151484e-17,8127.451354097906,0.010000000000000002,0.0005000000000000001,3.5443102773427395e-12,0.00344663984982441,0.9965533030750592,5.707157197908972e-08,1.1419326717082998e-16,2.5097930605532767e-06,0.9999974902069393,2.1477462093589134e-18
31337.5,3.296259940467392e-17,8114.032382257176,0.010000000000000002,0.0005000000000000001,3.1385452363669264e-12,0.0032949325529017977,0.9967050101198311,5.7324128497782025e-08,9.928556544239912e-17,2.3635607878991635e-06,0.999997636439212,2.0693994488664007e-18
31587.5,2.949656561174687e-17,8095.236649652565,0.010000000000000002,0.0005000000000000001,2.833159179141139e-12,0.0031899909514155845,0.9968099531125298,5.5933221395013963e-08,8.74710827499804e-17,2.2459465796364106e-06,0.9999977540534203,1.9049702733672962e-18
31837.5,2.6394987003504284e-17,8087.834949742433,0.010000000000000002,0.0005000000000000001,2.449559590188751e-12,0.0030020246659117553,0.9969979172314769,5.8100161824198956e-08,7.475623552720279e-17,2.0910377816920536e-06,0.9999979089622183,1.9331485070738832e-18
32087.5,2.3619540935223472e-17,8075.160162728478,0.010000000000000002,0.0005000000000000001,2.159687523645023e-12,0.0028616855408158293,0.9971382558238574,5.8633167120888426e-08,6.476448828689989e-17,1.964797214541938e-06,0.9999980352027855,1.8750441241254524e-18
