velocity,density,temperature,si,ca,si0,si1,si2,si3,ca0,ca1,ca2,ca3
13150.0,1.0971637558160338e-13,13855.241545748893,0.5,0.0,3.017148850623014e-14,1.0178604012546032e-05,0.7402988935523386,0.25968924460703713,,,,
13350.0,9.817964388351419e-14,13591.86371858801,0.5,0.0,5.666358834631519e-14,1.7094907708791746e-05,0.8466865883113955,0.15329589581963418,,,,
13600.0,8.785600528632412e-14,12844.325322158082,0.5,0.0,1.879804256970217e-13,4.227825577502094e-05,0.9651301098559406,0.03482760131016143,,,,
13850.0,7.861790244450754e-14,11739.36854308391,0.5,0.0,1.193200909276113e-12,0.00015377267178985046,0.9974207971425274,0.0024254301662600735,,,,
14100.0,7.035119073113851e-14,10970.711421817005,0.04113110539845759,0.0005141388174807199,5.432782472672207e-12,0.00043612089373591136,0.9992993922819264,0.0002644868188091188,3.095921949979698e-15,2.7150963570151973e-06,0.9999972848970874,6.5525214631445705e-12
14350.0,6.295372788383007e-14,10853.892904673445,0.04113110539845759,0.0005141388174807199,7.022232065852523e-12,0.0005344800783580992,0.999288017523876,0.0001775023907059167,3.62381357757822e-15,3.1104353186125093e-06,0.9999968895610784,3.5993346348628477e-12
14600.0,5.633411195010759e-14,10727.192913818193,0.04113110539845759,0.0005141388174807199,8.808604802692674e-12,0.0006424815267754941,0.9992385701204437,0.00011894834395766813,4.087044949908267e-15,3.48633889674674e-06,0.9999965136591666,1.932455562202748e-12
14850.0,5.04105519384562e-14,10637.181139446126,0.04113110539845759,0.0005141388174807199,1.0349218392312236e-11,0.0007393362673494541,0.9991723482026639,8.831551963033392e-05,4.441271950821582e-15,3.801344002494913e-06,0.9999961986547715,1.2215338928406227e-12
15100.0,4.5109857220975285e-14,10599.331511972663,0.04113110539845759,0.0005141388174807199,1.1494302853316855e-11,0.0008191251173882544,0.9991064405642893,7.443430682322155e-05,4.750862134302751e-15,4.0764172188173115e-06,0.9999959235818159,9.606175477589763e-13
15350.0,4.0366533200848204e-14,10523.38384251149,0.04113110539845759,0.0005141388174807199,1.289884814220933e-11,0.0009145414526161514,0.9990272688745134,5.818965996897971e-05,4.9877758332177486e-15,4.342153784302417e-06,0.9999956578455571,6.535911584261786e-13
15600.0,3.6121972070829574e-14,10405.041259497752,0.04113110539845759,0.0005141388174807199,1.5916914279380026e-11,0.001087168953530525,0.9988733534602763,3.947757027530013e-05,5.5577589776278905e-15,4.821219539981945e-06,0.9999951787800986,3.5590921548759244e-13
15850.0,3.23237286638818e-14,10331.323302926854,0.04113110539845759,0.0005141388174807199,1.8212895105381564e-11,0.001229127005709755,0.998740436014887,3.0436961189763685e-05,5.951275619474935e-15,5.193529114816242e-06,0.9999948064706407,2.385864777000068e-13
16100.0,2.892487244847865e-14,10286.926771643904,0.04113110539845759,0.0005141388174807199,2.0098587165236697e-11,0.0013563650562551655,0.9986182959326353,2.533899101041363e-05,6.292041427065436e-15,5.528033614722143e-06,0.9999944719661966,1.823057784671067e-13
16350.0,2.5883407661926743e-14,10173.021817307279,0.04113110539845759,0.0005141388174807199,2.3986537006723185e-11,0.001577434458907855,0.998405018319072,1.754719803332173e-05,6.796807859539804e-15,6.0176355136143125e-06,0.9999939823643784,1.0121095087132666e-13
16600.0,2.316175441695767e-14,10106.662304289479,0.04113110539845759,0.0005141388174807199,2.6172575817152536e-11,0.001728822241473077,0.9982571071277233,1.407060463089376e-05,6.980838473391327e-15,6.311934291606731e-06,0.9999936880656302,7.116269765068444e-14
16850.0,2.0726284370221296e-14,10040.248711497763,0.04113110539845759,0.0005141388174807199,2.9184033207849664e-11,0.0019216656359118372,0.9980672330470838,1.1101287820366433e-05,7.320517492796732e-15,6.702816294216192e-06,0.9999932971836494,4.913727227716245e-14
17100.0,1.8546905215468798e-14,9901.730276048365,0.04113110539845759,0.0005141388174807199,3.813839936818653e-11,0.002371548557034133,0.997621633943392,6.817461435476232e-06,8.447278354264414e-15,7.616171107748101e-06,0.999992383828861,2.2748259395297476e-14
17350.0,1.659668886748517e-14,9787.3913261177,0.04113110539845759,0.0005141388174807199,4.673134952504124e-11,0.0028051108338853405,0.9971903323790259,4.5567403573167045e-06,9.321029526337976e-15,8.39599362268782e-06,0.9999916040063561,1.1969534131114819e-14
17600.0,1.4851538742666926e-14,9717.081479272007,0.04113110539845759,0.0005141388174807199,5.30904081771702e-11,0.0031560145078783856,0.9968404935491804,3.4918898507993414e-06,9.90566167913762e-15,8.989056993467168e-06,0.9999910109429887,7.892743328278789e-15
17850.0,1.328989202521324e-14,9616.936549386903,0.04113110539845759,0.0005141388174807199,6.447650590457044e-11,0.0037103768912154526,0.9962872254216257,2.397622682316771e-06,1.094618841089691e-14,9.896338094687646e-06,0.99999010366189,4.361045478123049e-15
18100.0,1.1892453240175879e-14,9482.712802630926,0.04113110539845759,0.0005141388174807199,8.459665485292872e-11,0.0045897529904397796,0.9954088017800033,1.4451449602138256e-06,1.2644382659674063e-14,1.1249728095120677e-05,0.9999887502718904,1.9514717527698695e-15
18350.0,1.0641955841435824e-14,9365.829189611643,0.04113110539845759,0.0005141388174807199,1.0507132536128322e-10,0.005476631768193668,0.9945224368479472,9.312787878884196e-07,1.4024935474537084e-14,1.2452031320823322e-05,0.9999875479686642,9.6363704825264e-16
18600.0,9.522948868823592e-15,9204.664825438664,0.04113110539845759,0.0005141388174807199,1.496757572797974e-10,0.007149368663443023,0.9928501402394584,4.909474229455105e-07,1.704307787973012e-14,1.4666162391944218e-05,0.9999853338375906,3.4826053086623546e-16
18850.0,8.521606038349507e-15,8950.112517296442,0.04113110539845759,0.0005141388174807199,2.8439314181965416e-10,0.0112703674298894,0.9887294647356412,1.675500762997138e-07,2.4974707116721846e-14,1.9649319979937157e-05,0.999980350679995,6.378448525592263e-17
19100.0,7.625554906691999e-15,8749.157919304882,0.010000000000000002,0.0005000000000000001,4.920967997917203e-10,0.016617515064016673,0.9833824168394257,6.76044607868976e-08,3.492253145217615e-14,2.532519063476055e-05,0.9999746748093303,1.537499101108139e-17
19350.0,6.82372399912506e-15,8710.192637189679,0.010000000000000002,0.0005000000000000001,5.061961875538542e-10,0.017514005064948147,0.9824859366210199,5.78078357810969e-08,3.446230615668712e-14,2.5819124377003578e-05,0.9999741808755885,1.1858569369331375e-17
19600.0,6.1062060120205104e-15,8669.03452148657,0.010000000000000002,0.0005000000000000001,5.150408733101916e-10,0.01832955095243185,0.9816703990687892,4.9463738084931684e-08,3.353715336120211e-14,2.6121155393015417e-05,0.9999738788445734,9.089888829958943e-18
19850.0,5.464135399675648e-15,8661.436519164736,0.010000000000000002,0.0005000000000000001,4.756556160568859e-10,0.018005607585707756,0.9819943425997286,4.933890793187539e-08,3.0723998319206715e-14,2.5329079435740477e-05,0.9999746709205336,8.876562426347453e-18
20100.0,4.8895788329468825e-15,8659.669136820574,0.010000000000000002,0.0005000000000000001,4.331375772266118e-10,0.017525272097092426,0.982474677019552,5.045021794860247e-08,2.7923665492775295e-14,2.4416928923048713e-05,0.999975583071049,9.0251319107021e-18
20350.0,4.375437176212979e-15,8608.191483511951,0.010000000000000002,0.0005000000000000001,4.4828984823348364e-10,0.018549527980289707,0.9814504301099926,4.14614278343578e-08,2.731247749266314e-14,2.4829925609085115e-05,0.9999751700743637,6.453230187442429e-18
20600.0,3.915357771509436e-15,8587.279842619571,0.010000000000000002,0.0005000000000000001,4.23761316733631e-10,0.018503924204435102,0.9814960360999946,3.9271809080559105e-08,2.522072806016941e-14,2.4257103559733348e-05,0.999975742896415,5.7697011092918664e-18
20850.0,3.5036559460300107e-15,8555.792168319413,0.010000000000000002,0.0005000000000000001,4.149424422278126e-10,0.018888494166233737,0.9811114701312336,3.528759022769034e-08,2.384368627146956e-14,2.408018756225405e-05,0.9999759198124138,4.75338510172717e-18
21100.0,3.135244773153636e-15,8555.910520391506,0.010000000000000002,0.0005000000000000001,3.68116641172534e-10,0.018076808848486232,0.9819231538741011,3.69092960000691e-08,2.1137954560466167e-14,2.2867500518932957e-05,0.99997713249946,4.967586117049937e-18
21350.0,2.8055722191345024e-15,8541.81318162361,0.010000000000000002,0.0005000000000000001,3.3812588410524294e-10,0.017698427929958908,0.9823015354472776,3.628463753339606e-08,1.9097841768676693e-14,2.20247449512893e-05,0.9999779752550296,4.693020455715922e-18
21600.0,2.5105648988489894e-15,8513.951649215516,0.010000000000000002,0.0005000000000000001,3.2571644598109956e-10,0.0178753159305408,0.9821246504796397,3.326410303648542e-08,1.782350564888572e-14,2.1682993422702997e-05,0.9999783170065595,3.980439471130003e-18
21850.0,2.246577745653984e-15,8494.322882449971,0.010000000000000002,0.0005000000000000001,3.087052071812677e-10,0.017862690735846048,0.9821372774375898,3.1517858949687893e-08,1.6512328146639016e-14,2.1217541736122335e-05,0.9999787824582475,3.568321077608291e-18
22100.0,2.0103489734846856e-15,8484.620803945092,0.010000000000000002,0.0005000000000000001,2.8186084008651044e-10,0.017420395723800344,0.9825795725277731,3.146656583541803e-08,1.4894816309886394e-14,2.0397179469182237e-05,0.999979602820516,3.4638504235466225e-18
22350.0,1.7989597747103243e-15,8472.216866367127,0.010000000000000002,0.0005000000000000001,2.525115700040125e-10,0.016781514327957672,0.9832184538316041,3.158792670087623e-08,1.3141380937593015e-14,1.936772628043826e-05,0.9999806322737065,3.3547072416164923e-18
22600.0,1.609798255780531e-15,8447.55611657265,0.010000000000000002,0.0005000000000000001,2.398103746721415e-10,0.016793479221014374,0.9832064910784167,2.9460758490182603e-08,1.2126145319793076e-14,1.8928625473732133e-05,0.9999810713745142,2.9169475114403152e-18
22850.0,1.4405271650564395e-15,8442.608159776895,0.010000000000000002,0.0005000000000000001,2.1138548854734498e-10,0.01600658429629359,0.9839933849808989,3.0511421971222476e-08,1.0611033032536663e-14,1.785827364649409e-05,0.9999821417263428,2.9755353469634812e-18
23100.0,1.2890550140765279e-15,8417.675583096443,0.010000000000000002,0.0005000000000000001,1.98859123236316e-10,0.015919932484017397,0.9840800387116838,2.8605439629435773e-08,9.693654998384546e-15,1.735281518639236e-05,0.9999826471848039,2.5973303389277366e-18
23350.0,1.1535102354357457e-15,8400.185298508874,0.010000000000000002,0.0005000000000000001,1.843126262725024e-10,0.01567998402798195,0.9843199881418184,2.764588701144961e-08,8.79499377947907e-15,1.6767068053346077e-05,0.9999832329319378,2.386167836651242e-18
23600.0,1.0322180579765649e-15,8377.01038199192,0.010000000000000002,0.0005000000000000001,1.7180509380840842e-10,0.015502115326621513,0.9844978583105215,2.6191051810865652e-08,7.974503089274276e-15,1.6215397355262087e-05,0.9999837846026367,2.113767222912662e-18
23850.0,9.236798135652637e-16,8361.356437432956,0.010000000000000002,0.0005000000000000001,1.57532662720541e-10,0.015161783725290907,0.9848381904999325,2.5617243924288577e-08,7.170618912956043e-15,1.558014788857483e-05,0.9999844198521043,1.9746553087336968e-18
24100.0,8.265544197709907e-16,8334.740950971289,0.010000000000000002,0.0005000000000000001,1.4830307611733015e-10,0.015087454336145355,0.9849125216569098,2.3858641911124787e-08,6.539777736022324e-15,1.5131001323717818e-05,0.9999848689986697,1.7016335679288785e-18
24350.0,7.396418096504039e-16,8355.5646664254,0.010000000000000002,0.0005000000000000001,1.20117549081152e-10,0.013605678303867268,0.9863942934535015,2.8122513827306635e-08,5.407254603728904e-15,1.3731832688208293e-05,0.9999862681673065,2.126988665850451e-18
24600.0,6.618681038987115e-16,8327.119843517521,0.010000000000000002,0.0005000000000000001,1.1401660123902328e-10,0.013612290803591491,0.9863876831745271,2.590786490139673e-08,4.961637135085356e-15,1.338878560119761e-05,0.9999866112143938,1.803314516254567e-18
24850.0,5.92272342156443e-16,8330.656356016349,0.010000000000000002,0.0005000000000000001,9.697234096989267e-11,0.012674428899600979,0.9873255428684118,2.8135014986064966e-08,4.225899929056824e-15,1.241032569935323e-05,0.9999875896742965,1.9761630410219202e-18
25100.0,5.299946095259515e-16,8327.215427791261,0.010000000000000002,0.0005000000000000001,8.428784840404306e-11,0.011970192528445259,0.9880297778705666,2.951670037332171e-08,3.6498351200136176e-15,1.1615428009754505e-05,0.9999883845719866,2.0504132729534106e-18
25350.0,4.742654115906186e-16,8313.042365860023,0.010000000000000002,0.0005000000000000001,7.57842035930682e-11,0.011558514970009582,0.9884414555961166,2.9358089694872447e-08,3.222309187545763e-15,1.1038069498124146e-05,0.9999889619304987,1.955223916901143e-18
25600.0,4.2439616665611605e-16,8316.000555454291,0.010000000000000002,0.0005000000000000001,6.40907367557501e-11,0.010722029902650802,0.9892779380890737,3.194418488774065e-08,2.726944082988633e-15,1.0194377668599559e-05,0.9999898056223286,2.143522496888968e-18
25850.0,3.7977069773723515e-16,8289.703374632749,0.010000000000000002,0.0005000000000000001,6.025931671622929e-11,0.010660924104522329,0.989339046058718,2.9776500349660096e-08,2.483565809816906e-15,9.891896490332108e-06,0.9999901081035072,1.8489338387126026e-18
26100.0,3.3983761916655283e-16,8304.84418530538,0.010000000000000002,0.0005000000000000001,4.913933529894612e-11,0.009655747009532195,0.9903442185708758,3.437045245677552e-08,2.0535026773295605e-15,8.988095841933325e-06,0.999991011904156,2.228314192369525e-18
26350.0,3.041035237550076e-16,8286.897909914485,0.010000000000000002,0.0005000000000000001,4.4306704098902726e-11,0.009341143241540444,0.9906588229700327,3.374412012632414e-08,1.810566962777349e-15,8.54198103088825e-06,0.9999914580189674,2.074069421620486e-18
26600.0,2.7212688632593404e-16,8272.307894502927,0.010000000000000002,0.0005000000000000001,4.00210010334692e-11,0.00904698632191528,0.9909529802397475,3.3398316157910804e-08,1.6044432793442133e-15,8.13582721340944e-06,0.999991864172785,1.9650647207407368e-18
26850.0,2.435126082955436e-16,8241.276028902852,0.010000000000000002,0.0005000000000000001,3.779253391362751e-11,0.009021669840847565,0.9909782995246132,3.0596746689917776e-08,1.45994186888603e-15,7.899148195192012e-06,0.9999921008518033,1.6413714515306723e-18
27100.0,2.1790713589349504e-16,8218.759641637185,0.010000000000000002,0.0005000000000000001,3.496480140321505e-11,0.008876169875273603,0.9911238009807802,2.910898135104092e-08,1.3133600235671062e-15,7.6038892583357985e-06,0.9999923961107403,1.4593284930086886e-18
27350.0,1.9499409170500421e-16,8214.772904876261,0.010000000000000002,0.0005000000000000001,3.028768800901192e-11,0.008363953178565134,0.9916360162526239,3.053852321726446e-08,1.1292749402393572e-15,7.0990913601887455e-06,0.9999929009086387,1.5115714573673819e-18
27600.0,1.744903655584904e-16,8202.364479104948,0.010000000000000002,0.0005000000000000001,2.6949175657773044e-11,0.008021189631532344,0.991978779637923,3.0703595545661816e-08,9.88069674850946e-16,6.708489939409473e-06,0.9999932915100597,1.463230397873376e-18
27850.0,1.5614261645833403e-16,8185.211323707832,0.010000000000000002,0.0005000000000000001,2.422651840361338e-11,0.007744728248590277,0.9922552414950164,3.02321666919412e-08,8.689720494863291e-16,6.3654113860474445e-06,0.9999936345886131,1.3674512800391896e-18
28100.0,1.3972414234115304e-16,8162.326887186859,0.010000000000000002,0.0005000000000000001,2.231606985107113e-11,0.00759822950294562,0.9924017416856913,2.878904696294728e-08,7.778850268198067e-16,6.110772826415925e-06,0.9999938892271727,1.214484871845786e-18
28350.0,1.2503207897877403e-16,8154.618246286196,0.010000000000000002,0.0005000000000000001,1.944114859924575e-11,0.007186596205764766,0.9928133740227987,2.975199534292808e-08,6.699014880470783e-16,5.715254101638592e-06,0.9999942847458977,1.2252020277679291e-18
28600.0,1.118848934179498e-16,8169.2702518153965,0.010000000000000002,0.0005000000000000001,1.5660329143207e-11,0.006456354405014631,0.9935436109751884,3.460413674741517e-08,5.469373155490723e-16,5.154694202520043e-06,0.9999948453057969,1.4883124929367425e-18
28850.0,1.0012014098614752e-16,8138.177676618512,0.010000000000000002,0.0005000000000000001,1.4830940990045772e-11,0.006450659429252412,0.9935493089941342,3.156178241744077e-08,4.987137244529726e-16,5.011628818781316e-06,0.9999949883711807,1.2345965632500954e-18
29100.0,8.959245814929566e-17,8117.239662215048,0.010000000000000002,0.0005000000000000001,1.3602554443245862e-11,0.006310707129305084,0.9936892625658348,3.0291257700974334e-08,4.453245267147274e-16,4.802174590238682e-06,0.9999951978254094,1.1108351654415476e-18
29350.0,8.01717664215421e-17,8114.584589888032,0.010000000000000002,0.0005000000000000001,1.1627867298697234e-11,0.005894947881857384,0.9941050199352616,3.217125330955555e-08,3.7840041536108996e-16,4.451113010070237e-06,0.9999955488869895,1.1693832503588399e-18
29600.0,7.174166513479958e-17,8102.894066196959,0.010000000000000002,0.0005000000000000001,1.0307828546752206e-11,0.005639538543771378,0.9943604289869735,3.245894726560864e-08,3.299796866219366e-16,4.197473222870776e-06,0.9999958025267768,1.1375373829835354e-18
29850.0,6.41979932093744e-17,8089.169663014582,0.010000000000000002,0.0005000000000000001,9.162211473001688e-12,0.005404806871559847,0.9945951606300029,3.2489274975204704e-08,2.879086369816303e-16,3.961464588983362e-06,0.9999960385354107,1.0908352971861866e-18
30100.0,5.744754215513362e-17,8080.378102326519,0.010000000000000002,0.0005000000000000001,7.992485096800864e-12,0.005116360608298221,0.9948836059678127,3.341589661424592e-08,2.479085540383054e-16,3.7057526861217193e-06,0.9999962942473137,1.0912266477881203e-18
30350.0,5.140690440124152e-17,8071.314729498322,0.010000000000000002,0.0005000000000000001,6.981029233828893e-12,0.0048473603600785635,0.9951526053245636,3.4308376744964404e-08,2.1366064323611765e-16,3.4686185563561923e-06,0.9999965313814434,1.0887298081146092e-18
30600.0,4.600144272459923e-17,8057.282357436307,0.010000000000000002,0.0005000000000000001,6.224491998250662e-12,0.004655054681999609,0.9953449110883648,3.422341109909476e-08,1.8688819073355874e-16,3.278673355110386e-06,0.9999967213266447,1.039165949300872e-18
30850.0,4.1164368043400064e-17,8047.902294135062,0.010000000000000002,0.0005000000000000001,5.4483426849461264e-12,0.00441643410190502,0.9955835308461372,3.504650949881445e-08,1.6133056191007998e-16,3.072008582013965e-06,0.9999969279914178,1.032941992170302e-18
31100.0,3.6835914181151484e-17,8036.362335460863,0.010000000000000002,0.0005000000000000001,4.787197404120628e-12,0.004200621105629048,0.9957993433269545,3.55626291901674e-08,1.3947995066254126e-16,2.8824443349754294e-06,0.9999971175556649,1.010528931842725e-18
31350.0,3.296259940467392e-17,8023.984614253164,0.010000000000000002,0.0005000000000000001,4.2178719177659796e-12,0.004002588690701556,0.9959973753807847,3.5924295854029846e-08,1.208024842514494e-16,2.7079361468817973e-06,0.999997292063853,9.814954824557593e-19
31600.0,2.949656561174687e-17,8009.867516549995,0.010000000000000002,0.0005000000000000001,3.743817020629027e-12,0.0038324523989791276,0.9961675116821825,3.591509452811959e-08,1.0518266891115757e-16,2.5529673412067573e-06,0.9999974470326588,9.382114381656842e-19
31850.0,2.6394987003504284e-17,7990.599756190104,0.010000000000000002,0.0005000000000000001,3.3868931416816215e-12,0.0037156915326116762,0.9962842735699816,3.489401988337534e-08,9.27938256187885e-17,2.4283467298015554e-06,0.9999975716532701,8.57385826148936e-19
32100.0,2.3619540935223472e-17,7982.423757441998,0.010000000000000002,0.0005000000000000001,2.9382182902725198e-12,0.00350455046558853,0.9964954134698518,3.606162149864862e-08,7.950584306682516e-17,2.2646802437383566e-06,0.9999977353197561,8.629970325645023e-19
