velocity,density,temperature,si,ca,si0,si1,si2,si3,ca0,ca1,ca2,ca3
13625.0,8.785600528632412e-14,12579.033328333582,0.5,0.0,2.2402641701239629e-13,4.807874784061328e-05,0.9771235148454703,0.022828402810726248,,,,
13875.0,7.861790244450754e-14,11667.980944044459,0.5,0.0,1.2219014304525707e-12,0.00015651479241199397,0.9976893233677532,0.0021541618252142038,,,,
14125.0,7.035119073113851e-14,10894.191932795235,0.050890585241730284,0.0005089058524173028,5.810162744264631e-12,0.0004564812740752774,0.9993206368034121,0.00022288191664017722,3.1269075291046675e-15,2.756867033214141e-06,0.9999972431281128,4.8508022050547125e-12
14375.0,6.295372788383007e-14,10772.185595571413,0.050890585241730284,0.0005089058524173028,7.676721017535055e-12,0.0005674969097810397,0.9992867575859545,0.0001457454965645167,3.721076302057123e-15,3.193109124726543e-06,0.9999968068883058,2.56565210580272e-12
14625.0,5.633411195010759e-14,10711.613850299156,0.050890585241730284,0.0005089058524173028,8.944682611078353e-12,0.0006489998853688675,0.999236335867436,0.00011466423823704176,4.100742990468677e-15,3.49965471565987e-06,0.9999965003434678,1.812492379391261e-12
14875.0,5.04105519384562e-14,10621.619012598869,0.050890585241730284,0.0005089058524173028,1.0899560441747692e-11,0.0007647364074738604,0.999152185105897,8.307847572336048e-05,4.6166280828408055e-15,3.899010849798637e-06,0.9999961009880283,1.1173704423052763e-12
15125.0,4.5109857220975285e-14,10549.8662106798,0.050890585241730284,0.0005089058524173028,1.2432649581361217e-11,0.0008628148487223708,0.9990724104495088,6.477468933258284e-05,4.940003017372086e-15,4.2003750773723275e-06,0.9999957996241532,7.643892667627165e-13
15375.0,4.0366533200848204e-14,10486.127290231461,0.050890585241730284,0.0005089058524173028,1.3701362711001047e-11,0.0009517265911487627,0.9989959513306925,5.232206445526061e-05,5.141909768097244e-15,4.443921142974021e-06,0.999995556078303,5.488952003080329e-13
15625.0,3.6121972070829574e-14,10431.212055989137,0.050890585241730284,0.0005089058524173028,1.5129404343515787e-11,0.0010509213176699806,0.998906249814428,4.2828852771203605e-05,5.397779017855008e-15,4.719168307522202e-06,0.9999952808312815,4.054351607807644e-13
15875.0,3.23237286638818e-14,10304.95253271796,0.050890585241730284,0.0005089058524173028,1.9171116414473552e-11,0.0012711952443628255,0.9987007777261787,2.8027010286955787e-05,6.128814555950024e-15,5.304629060187662e-06,0.9999946953707247,2.0896069827385175e-13
16125.0,2.892487244847865e-14,10267.815613589055,0.050890585241730284,0.0005089058524173028,2.0437956346276686e-11,0.0013713958989645377,0.9986044148246245,2.4189255972773564e-05,6.301186995422244e-15,5.546472672512645e-06,0.9999944535271534,1.6780008791074672e-13
16375.0,2.5883407661926743e-14,10191.550812495509,0.050890585241730284,0.0005089058524173028,2.2666237835104137e-11,0.0015193379971581856,0.9984617851147379,1.887686543743794e-05,6.527123731758113e-15,5.856466659984582e-06,0.9999941435332205,1.1289737405141002e-13
16625.0,2.316175441695767e-14,10111.445783451256,0.050890585241730284,0.0005089058524173028,2.6558697053742122e-11,0.0017446718385316098,0.9982412600066025,1.4068128306997805e-05,7.108975641687666e-15,6.375441814457889e-06,0.9999936245581066,7.181935187592634e-14
16875.0,2.0726284370221296e-14,10018.164176050168,0.050890585241730284,0.0005089058524173028,3.074323104571079e-11,0.0019881735751103723,0.9980015522199902,1.0274174156125885e-05,7.565985693601192e-15,6.857370134479722e-06,0.9999931426298145,4.350216866481141e-14
17125.0,1.8546905215468798e-14,9929.757880241523,0.050890585241730284,0.0005089058524173028,3.5343250260966675e-11,0.0022550921790544867,0.9977373212971612,7.586488441082596e-06,8.025214947318761e-15,7.354306902141569e-06,0.999992645693063,2.6816871861118754e-14
17375.0,1.659668886748517e-14,9836.327860022393,0.050890585241730284,0.0005089058524173028,4.113312792160378e-11,0.002578503574876784,0.997416013662795,5.4827211952191765e-06,8.57281251415686e-15,7.9262330735647e-06,0.9999920737669019,1.596031784245695e-14
17625.0,1.4851538742666926e-14,9758.162935185934,0.050890585241730284,0.0005089058524173028,4.725494565150862e-11,0.0029226732507595427,0.9970732171987917,4.109503193824432e-06,9.152321370417725e-15,8.519353495942949e-06,0.9999914806464848,1.0138799006106639e-14
17875.0,1.328989202521324e-14,9598.061337219908,0.050890585241730284,0.0005089058524173028,6.381788235184598e-11,0.003685861628596448,0.9963118185421372,2.319765448377415e-06,1.0656461363646472e-14,9.768453338240543e-06,0.9999902315466471,4.049442409771466e-15
18125.0,1.1892453240175879e-14,9514.464331969446,0.050890585241730284,0.0005089058524173028,7.425014641382943e-11,0.004212692403968304,0.9957856177010149,1.6898207667740507e-06,1.144092005884179e-14,1.0544818446737306e-05,0.9999894551815394,2.4500797680707273e-15
18375.0,1.0641955841435824e-14,9363.799000576895,0.050890585241730284,0.0005089058524173028,1.0241661002639475e-10,0.0053848551298343785,0.9946142014427393,9.433250096593395e-07,1.3647463870412558e-14,1.2255198294187082e-05,0.9999877448016912,9.715959974341378e-16
18625.0,9.522948868823592e-15,9240.654076486086,0.050890585241730284,0.0005089058524173028,1.3215358201678928e-10,0.006587355005084405,0.9934120648026228,5.800601391937949e-07,1.559462141926788e-14,1.3825298022183397e-05,0.9999861747019619,4.480916259529739e-16
18875.0,8.521606038349507e-15,9043.264553396157,0.050890585241730284,0.0005089058524173028,2.1479850895214435e-10,0.009374130157914193,0.990625615754422,2.538728654647851e-07,2.0769176389457647e-14,1.7313822215818513e-05,0.9999826861777633,1.2180113116063906e-16
19125.0,7.625554906691999e-15,8834.65468091026,0.010000000000000002,0.0005000000000000001,3.752658733748746e-10,0.013917734590847325,0.9860821640218355,1.010120512954737e-07,2.918629092962152e-14,2.240095665283626e-05,0.9999775990433181,2.8668380871390536e-17
19375.0,6.82372399912506e-15,8802.899369386969,0.010000000000000002,0.0005000000000000001,3.740750817205722e-10,0.014371445349891742,0.9856284642169855,9.00590476777031e-08,2.8130230802226303e-14,2.248971935401392e-05,0.9999775102806179,2.3530813200653535e-17
19625.0,6.1062060120205104e-15,8754.878930582458,0.010000000000000002,0.0005000000000000001,3.9098001181001906e-10,0.01530767587239559,0.9846922492034462,7.453317821313154e-08,2.7930087998410604e-14,2.3051927233575023e-05,0.9999769480727385,1.7173363306880447e-17
19875.0,5.464135399675648e-15,8709.974764064367,0.010000000000000002,0.0005000000000000001,4.037337371700742e-10,0.01617660742418391,0.9838233295668307,6.260525179509982e-08,2.7479047269771653e-14,2.3487655623948253e-05,0.9999765123443486,1.280863638302361e-17
20125.0,4.8895788329468825e-15,8713.797724455086,0.010000000000000002,0.0005000000000000001,3.575684679540387e-10,0.015462037860881926,0.9845378955990836,6.618246605404744e-08,2.4428464536500457e-14,2.232581945062591e-05,0.999977674180525,1.3664139970691574e-17
20375.0,4.375437176212979e-15,8695.272575697954,0.010000000000000002,0.0005000000000000001,3.389461457268985e-10,0.01545102858596589,0.9845489080330041,6.304208382968488e-08,2.268707915423408e-14,2.1872490965638123e-05,0.9999781275090116,1.2381651997713035e-17
20625.0,3.915357771509436e-15,8687.201866956471,0.010000000000000002,0.0005000000000000001,3.1071721146451037e-10,0.015105939169480135,0.9848939974067639,6.3113038646909e-08,2.0601402938869488e-14,2.110238344376487e-05,0.9999788976165357,1.2121010964884986e-17
20875.0,3.5036559460300107e-15,8642.773904122228,0.010000000000000002,0.0005000000000000001,3.1912088079189993e-10,0.015908519019689277,0.9840914274870426,5.3174147255964914e-08,2.0154506293260383e-14,2.1427697829152753e-05,0.9999785723021507,9.062318171487846e-18
21125.0,3.135244773153636e-15,8624.46836285905,0.010000000000000002,0.0005000000000000001,3.022274845099114e-10,0.015888591976191135,0.9841113570549685,5.066661280424171e-08,1.8694441161236917e-14,2.0976055100282552e-05,0.999979023944881,8.21236811843404e-18
21375.0,2.8055722191345024e-15,8597.501965835949,0.010000000000000002,0.0005000000000000001,2.876782374816507e-10,0.015923041737666364,0.9840769109661567,4.7008498707804983e-08,1.726161061785147e-14,2.051678544219586e-05,0.9999794832145404,7.07626049599158e-18
21625.0,2.5105648988489894e-15,8591.946489694637,0.010000000000000002,0.0005000000000000001,2.558327618906115e-10,0.015263714684146864,0.984736236722278,4.833774246931057e-08,1.523634404896107e-14,1.9457896893105605e-05,0.9999805421030916,7.159169971813624e-18
21875.0,2.246577745653984e-15,8576.681470210975,0.010000000000000002,0.0005000000000000001,2.3673441578304674e-10,0.015016449476963407,0.9849835031454013,4.714090093942742e-08,1.3846604604203336e-14,1.8809310776170307e-05,0.9999811906892101,6.690869945918351e-18
22125.0,2.0103489734846856e-15,8577.42219057302,0.010000000000000002,0.0005000000000000001,2.0758902865575807e-10,0.014262519869707458,0.9857374301649507,4.975775275419811e-08,1.2129565278020629e-14,1.773586120519406e-05,0.9999822641387827,7.068639231507494e-18
22375.0,1.7989597747103243e-15,8540.77490833761,0.010000000000000002,0.0005000000000000001,2.0552348412999852e-10,0.014666207628266793,0.985333748408685,4.375752474168921e-08,1.1522479568833896e-14,1.7674020052665045e-05,0.9999823259799359,5.6175698620147624e-18
22625.0,1.609798255780531e-15,8516.213846665669,0.010000000000000002,0.0005000000000000001,1.9426855298359647e-10,0.014631701572695362,0.9853682572364693,4.099656680167164e-08,1.0585400101165987e-14,1.7227311290178455e-05,0.9999827726886992,4.913396932471936e-18
22875.0,1.4405271650564395e-15,8500.686935129721,0.010000000000000002,0.0005000000000000001,1.7618637393290593e-10,0.014208122572329623,0.9857918367810535,4.047043052671343e-08,9.421256431347442e-15,1.6452262032643485e-05,0.999983547737958,4.640822888720945e-18
23125.0,1.2890550140765279e-15,8491.586900617716,0.010000000000000002,0.0005000000000000001,1.572551803446371e-10,0.013653063963194195,0.9863468947891307,4.10904197252257e-08,8.308796956860116e-15,1.560685401799246e-05,0.9999843931459736,4.589089997351578e-18
23375.0,1.1535102354357457e-15,8482.19749258771,0.010000000000000002,0.0005000000000000001,1.4105116757385123e-10,0.013161828079936655,0.9868381302357937,4.154321852246243e-08,7.360518842437154e-15,1.4844472804843749e-05,0.9999851555271877,4.514988776982626e-18
23625.0,1.0322180579765649e-15,8454.661962787202,0.010000000000000002,0.0005000000000000001,1.342705241196922e-10,0.013192156679807696,0.9868078048013411,3.838458065199404e-08,6.784647435181543e-15,1.4507298795419191e-05,0.9999854927011977,3.8585014578813126e-18
23875.0,9.236798135652637e-16,8428.233014446565,0.010000000000000002,0.0005000000000000001,1.2637786513222568e-10,0.013125468798608852,0.9868744952438677,3.583114556426208e-08,6.190446467211312e-15,1.4090636079311427e-05,0.9999859093639145,3.3400314543501074e-18
24125.0,8.265544197709907e-16,8402.602440651883,0.010000000000000002,0.0005000000000000001,1.1802748437080268e-10,0.012993122220761454,0.9870068439774753,3.3683735758515255e-08,5.608932562842438e-15,1.3628126871298592e-05,0.9999863718731231,2.916819674831455e-18
24375.0,7.396418096504039e-16,8375.794224518131,0.010000000000000002,0.0005000000000000001,1.1093755242723748e-10,0.012916162151547858,0.9870838063272949,3.141021977017057e-08,5.107214842611041e-15,1.3222602306002577e-05,0.9999867773976889,2.5171601897160606e-18
24625.0,6.618681038987115e-16,8385.228652611808,0.010000000000000002,0.0005000000000000001,9.315174403324462e-11,0.011925114800663926,0.9880748501359145,3.497026978796486e-08,4.32178071236887e-15,1.2194371792512838e-05,0.9999878056282032,2.8758170549180394e-18
24875.0,5.92272342156443e-16,8369.197677470334,0.010000000000000002,0.0005000000000000001,8.447413929116242e-11,0.011579525087620213,0.9884204404063257,3.442157988599531e-08,3.841195796022436e-15,1.1638092152240275e-05,0.9999883619078439,2.7010206068734854e-18
25125.0,5.299946095259515e-16,8370.295436678995,0.010000000000000002,0.0005000000000000001,7.25231959968871e-11,0.010847568190541394,0.9891523948588097,3.68781257123994e-08,3.2928346032648837e-15,1.0834284639744146e-05,0.9999891657153569,2.8998641582730786e-18
25375.0,4.742654115906186e-16,8351.682671921764,0.010000000000000002,0.0005000000000000001,6.622273507003914e-11,0.010580997693947226,0.9894189663781003,3.586172973314134e-08,2.938283739423329e-15,1.0369905162657562e-05,0.9999896300948344,2.6704778189749702e-18
25625.0,4.2439616665611605e-16,8336.435079639019,0.010000000000000002,0.0005000000000000001,5.944021999047975e-11,0.010205707708477386,0.9897942566243542,3.560772820529383e-08,2.5869212381512433e-15,9.840678499337993e-06,0.9999901593214982,2.5349414415290108e-18
25875.0,3.7977069773723515e-16,8339.377757607088,0.010000000000000002,0.0005000000000000001,5.046542304635857e-11,0.009490922293795263,0.9905090390249355,3.863080374895181e-08,2.1972563922038644e-15,9.107950928096385e-06,0.9999908920490697,2.7709178598825777e-18
26125.0,3.3983761916655283e-16,8331.14756752833,0.010000000000000002,0.0005000000000000001,4.458399442430432e-11,0.00905922437303237,0.9909407360476352,3.953474849978658e-08,1.918111773601429e-15,8.586851013631135e-06,0.9999914131489844,2.7664679262581736e-18
26375.0,3.041035237550076e-16,8317.077570233161,0.010000000000000002,0.0005000000000000001,4.00303406938196e-11,0.008739488719999801,0.9912604718764488,3.9363520924270686e-08,1.6909375881117871e-15,8.152649278254719e-06,0.9999918473507201,2.64193078784875e-18
26625.0,2.7212688632593404e-16,8292.484711382152,0.010000000000000002,0.0005000000000000001,3.726032430012271e-11,0.008632685011631244,0.9913672778298404,3.712126808499941e-08,1.5274747649750476e-15,7.869947250570348e-06,0.9999921300527479,2.317065281855074e-18
26875.0,2.435126082955436e-16,8284.428158792603,0.010000000000000002,0.0005000000000000001,3.270737308121954e-11,0.008205556307005812,0.9917944054999186,3.816036810421521e-08,1.3250898111632374e-15,7.392346756819072e-06,0.9999926076532418,2.32435551520083e-18
27125.0,2.1790713589349504e-16,8292.270758790606,0.010000000000000002,0.0005000000000000001,2.7052763065202184e-11,0.007501032513792467,0.9924989247410132,4.271814150920301e-08,1.1023227422450096e-15,6.7517210050623695e-06,0.9999932482789938,2.6600699392151397e-18
27375.0,1.9499409170500421e-16,8292.288825615138,0.010000000000000002,0.0005000000000000001,2.318068579509533e-11,0.0070175547996150864,0.9929823995144452,4.5662759038864766e-08,9.41493941983734e-16,6.273120442261223e-06,0.9999937268795568,2.8412096684062163e-18
27625.0,1.744903655584904e-16,8270.870252797697,0.010000000000000002,0.0005000000000000001,2.120693267513964e-11,0.006853805679683321,0.9931461503572738,4.394183585971166e-08,8.388295806843368e-16,6.002850531850595e-06,0.9999939971494674,2.56559578575128e-18
27875.0,1.5614261645833403e-16,8243.557753287956,0.010000000000000002,0.0005000000000000001,1.9781610367863956e-11,0.006779813703423939,0.9932201452529581,4.102383615677205e-08,7.570366637941434e-16,5.795389058023448e-06,0.9999942046109412,2.208026556151776e-18
28125.0,1.3972414234115304e-16,8235.561888533523,0.010000000000000002,0.0005000000000000001,1.728122786758083e-11,0.006424027155430246,0.9935759305307472,4.229654122650963e-08,6.535401786508534e-16,5.428155729995871e-06,0.9999945718442694,2.2214746700422205e-18
28375.0,1.2503207897877403e-16,8213.797505113296,0.010000000000000002,0.0005000000000000001,1.5837599066750956e-11,0.006281416013779058,0.9937185433923656,4.057801768270841e-08,5.829084104644289e-16,5.198275958921096e-06,0.9999948017240404,1.9960794013854798e-18
28625.0,1.118848934179498e-16,8197.219263582556,0.010000000000000002,0.0005000000000000001,1.426802139812209e-11,0.006073242369345141,0.9939267176522264,3.9964160433768144e-08,5.139557098796286e-16,4.938990334312815e-06,0.9999950610096652,1.869433456095628e-18
28875.0,1.0012014098614752e-16,8184.652681243773,0.010000000000000002,0.0005000000000000001,1.2641137435372282e-11,0.0058079723684163025,0.9941919873553912,4.0263551413034204e-08,4.476639889289656e-16,4.655101855402944e-06,0.9999953448981441,1.8124201172306446e-18
29125.0,8.959245814929566e-17,8183.197707482631,0.010000000000000002,0.0005000000000000001,1.0746193181129839e-11,0.005405487168780886,0.9945944697451038,4.3075369164000225e-08,3.7879500355107716e-16,4.302987297170073e-06,0.9999956970127024,1.929155067421661e-18
29375.0,8.01717664215421e-17,8165.156285753417,0.010000000000000002,0.0005000000000000001,9.70638613637177e-12,0.005235317481016993,0.9947646403578153,4.215146140017999e-08,3.342921623117617e-16,4.092011652380889e-06,0.9999959079883473,1.786643407697297e-18
29625.0,7.174166513479958e-17,8165.271858308069,0.010000000000000002,0.0005000000000000001,8.22016797864591e-12,0.004860297072329114,0.9951396575065339,4.541291695744984e-08,2.822366706264629e-16,3.7761696429627687e-06,0.9999962238303568,1.9242481777102647e-18
29875.0,6.41979932093744e-17,8145.5098330633455,0.010000000000000002,0.0005000000000000001,7.461707058379664e-12,0.004722685616650157,0.9952772703196671,4.405622121526766e-08,2.4982501996952987e-16,3.598798938589198e-06,0.9999964012010611,1.757168501860617e-18
30125.0,5.744754215513362e-17,8123.743509692103,0.010000000000000002,0.0005000000000000001,6.834474493003897e-12,0.004616185861981517,0.995383771911822,4.2219361865966034e-08,2.2259675352114815e-16,3.4446449807785577e-06,0.999996555355019,1.574925932035093e-18
30375.0,5.140690440124152e-17,8113.712195795096,0.010000000000000002,0.0005000000000000001,5.981309192024622e-12,0.00437909234449909,0.995620864473137,4.3176382483187786e-08,1.9203127157649748e-16,3.2266895011952494e-06,0.9999967733104986,1.5610107160841194e-18
30625.0,4.600144272459923e-17,8107.786655867931,0.010000000000000002,0.0005000000000000001,5.155052404893097e-12,0.004112530831552242,0.9958874240100494,4.515324317892674e-08,1.638929596426075e-16,3.000741314568744e-06,0.9999969992586852,1.6021404318468083e-18
30875.0,4.1164368043400064e-17,8091.248167630624,0.010000000000000002,0.0005000000000000001,4.6159679989490685e-12,0.0039604445050769824,0.9960395108955565,4.459475056974808e-08,1.4360109184858325e-16,2.8408427561976645e-06,0.9999971591572436,1.5030522857100893e-18
31125.0,3.6835914181151484e-17,8077.809203598591,0.010000000000000002,0.0005000000000000001,4.093026497200366e-12,0.003789508856417882,0.99621044640418,4.473530899545379e-08,1.250143496660016e-16,2.6774380331862695e-06,0.9999973225619666,1.4457364824070048e-18
31375.0,3.296259940467392e-17,8068.756327094846,0.010000000000000002,0.0005000000000000001,3.5659681996058817e-12,0.003584213197562516,0.9964157407961336,4.6002737889345886e-08,1.0746667992654339e-16,2.5023022135140275e-06,0.9999974976977863,1.4448297444691494e-18
31625.0,2.949656561174687e-17,8050.375262940812,0.010000000000000002,0.0005000000000000001,3.2193661168232316e-12,0.0034703287486552623,0.9965296263366347,4.491149075302718e-08,9.471596572974427e-17,2.3782189581900495e-06,0.9999976217810417,1.3316015929359759e-18
31875.0,2.6394987003504284e-17,8033.069225472213,0.010000000000000002,0.0005000000000000001,2.8924218114936093e-12,0.003349404833947655,0.9966505510429801,4.412017994177228e-08,8.317438889799139e-17,2.2549502518240865e-06,0.999997745049748,1.2387589589107302e-18
32125.0,2.3619540935223472e-17,8019.8661371648495,0.010000000000000002,0.0005000000000000001,2.5585879523207408e-12,0.003199807323866925,0.996800148339536,4.433403856768411e-08,7.224491324596222e-17,2.1224041712921626e-06,0.9999978775958287,1.1937394876842498e-18
32375.0,2.1135934407417285e-17,8004.389519748573,0.010000000000000002,0.0005000000000000001,2.28060334393315e-12,0.003072273184177447,0.9969276828028476,4.4010694326355744e-08,6.306831766358387e-17,2.004652524039931e-06,0.9999979953474758,1.1282158837928103e-18
