velocity,density,temperature,si,ca,si0,si1,si2,si3,ca0,ca1,ca2,ca3
12675.0,1.3701605293266483e-13,14769.717437763698,0.5,0.0,7.212231550494572e-15,2.721705441866354e-06,0.382254352053273,0.6177086730875805,,,,
12825.0,1.22608746524337e-13,14980.346418194566,0.5,0.0,6.962745310480356e-15,2.662424822149185e-06,0.35395254507057466,0.6459990452631558,,,,
13075.0,1.0971637558160338e-13,14772.691312993938,0.5,0.0,1.3637261458798118e-14,4.871553704962275e-06,0.4743350076724274,0.5256404250857988,,,,
13325.0,9.817964388351419e-14,14174.602609223182,0.5,0.0,4.037724734884627e-14,1.2564006905825665e-05,0.7261553673627873,0.273829719773983,,,,
13575.0,8.785600528632412e-14,13302.137092573677,0.5,0.0,1.580057546194774e-13,3.670669135018475e-05,0.9366883669589218,0.06327487485942848,,,,
13825.0,7.861790244450754e-14,12071.022665748329,0.5,0.0,1.121218342908514e-12,0.00014621298578690103,0.9958511551011916,0.0040026318437974585,,,,
14075.0,7.035119073113851e-14,11244.480402286452,0.050890585241730284,0.0005089058524173028,5.006942023810883e-12,0.0004103641498656849,0.9991563740799951,0.00043326176478543355,3.4401492830011115e-15,2.8075856113325553e-06,0.9999971923975893,1.6795777880356844e-11
14325.0,6.295372788383007e-14,11134.348211356773,0.050890585241730284,0.0005089058524173028,6.183327733663772e-12,0.0004882667205297504,0.999206121659406,0.0003056116137280929,3.8832555739418495e-15,3.1401846509353883e-06,0.9999968598054482,9.89709852237174e-12
14575.0,5.633411195010759e-14,11002.31320403393,0.050890585241730284,0.0005089058524173028,8.04463579967133e-12,0.0006012437166886366,0.9991984733193157,0.00020028295589453215,4.539350209547174e-15,3.5955958671901448e-06,0.9999964043989227,5.205528358201617e-12
14825.0,5.04105519384562e-14,10823.072839541286,0.050890585241730284,0.0005089058524173028,1.0749660430490866e-11,0.000754070260684212,0.9991273886316363,0.00011854109691375911,5.267203847372605e-15,4.120080098413459e-06,0.9999958799176273,2.2690641814430386e-12
15075.0,4.5109857220975285e-14,10716.798377983505,0.050890585241730284,0.0005089058524173028,1.3357768019207314e-11,0.0009003953894542851,0.9990169257572832,8.267883989782651e-05,5.980840891830839e-15,4.618417532898612e-06,0.9999953815811482,1.3127850623292487e-12
15325.0,4.0366533200848204e-14,10659.34275628877,0.050890585241730284,0.0005089058524173028,1.489116932890146e-11,0.001000624922286938,0.9989321588594253,6.721620339240391e-05,6.326046449980707e-15,4.927579807887189e-06,0.999995072419223,9.626466718055469e-13
15575.0,3.6121972070829574e-14,10643.875921757975,0.050890585241730284,0.0005089058524173028,1.502723001553e-11,0.001041261847462659,0.9988960041056785,6.273403182806233e-05,6.258270400561951e-15,5.021166278090323e-06,0.9999949788328427,8.728160297318534e-13
15825.0,3.23237286638818e-14,10569.066016938508,0.050890585241730284,0.0005089058524173028,1.672393622405106e-11,0.0011563264235999126,0.998794222007487,4.945155218714598e-05,6.5273261309148375e-15,5.3207769217962436e-06,0.9999946792224709,6.007160169435378e-13
16075.0,2.892487244847865e-14,10499.03493854011,0.050890585241730284,0.0005089058524173028,1.8167382757110852e-11,0.0012638913230502199,0.9986962324084582,3.987625032315052e-05,6.671449533712961e-15,5.5655303557636015e-06,0.9999944344692117,4.2589976787439625e-13
16325.0,2.5883407661926743e-14,10419.643117326745,0.050890585241730284,0.0005089058524173028,2.061486743368353e-11,0.0014214832629755624,0.99854785577825,3.0660938158937805e-05,7.0612954211935535e-15,5.951693216517403e-06,0.999994048306494,2.8244383869047325e-13
16575.0,2.316175441695767e-14,10340.644063605823,0.050890585241730284,0.0005089058524173028,2.3176260050154287e-11,0.0015890699288172438,0.9983872446640334,2.3685383972914185e-05,7.40643216672006e-15,6.32883886687056e-06,0.9999936711609377,1.879203194729507e-13
16825.0,2.0726284370221296e-14,10229.039595859242,0.050890585241730284,0.0005089058524173028,2.7927867509910184e-11,0.0018596831357841578,0.9981239143786215,1.640245766628613e-05,8.107642490036114e-15,6.934550141806643e-06,0.999993065449745,1.0504111677264321e-13
17075.0,1.8546905215468798e-14,10138.10170209128,0.050890585241730284,0.0005089058524173028,3.2733395728936476e-11,0.0021365137919648856,0.9978515054129184,1.1980762383323246e-05,8.76429330835537e-15,7.519536445560671e-06,0.9999924804634814,6.419619047703593e-14
17325.0,1.659668886748517e-14,10028.031121427195,0.050890585241730284,0.0005089058524173028,3.8864262845059895e-11,0.002476165031580193,0.9975155019301274,8.33299942815563e-06,9.44981526051195e-15,8.163659629847098e-06,0.9999918363403248,3.5849687580097234e-14
17575.0,1.4851538742666926e-14,9939.222566593828,0.050890585241730284,0.0005089058524173028,4.578441772907205e-11,0.0028537955272769557,0.9971401552295165,6.049197422188641e-06,1.0267393606651821e-14,8.875034567731538e-06,0.9999911249654003,2.1715898370236954e-14
17825.0,1.328989202521324e-14,9821.538153058636,0.050890585241730284,0.0005089058524173028,5.549061600635286e-11,0.003351947632701335,0.9966440004590381,4.0518527700616256e-06,1.1205464158099818e-14,9.715411921683125e-06,0.9999902845880556,1.1395032922305573e-14
18075.0,1.1892453240175879e-14,9701.031073907303,0.050890585241730284,0.0005089058524173028,6.858473673333637e-11,0.003987648057775621,0.9960097044429002,2.647430739523932e-06,1.2415619987818674e-14,1.073833286283801e-05,0.999989261667119,5.763856619988331e-15
18325.0,1.0641955841435824e-14,9518.592791026846,0.050890585241730284,0.0005089058524173028,9.979989862224906e-11,0.005280946856799961,0.9947177039425937,1.34910080634754e-06,1.5285860964374736e-14,1.2764412194213256e-05,0.9999872355877885,1.970657395085399e-15
18575.0,9.522948868823592e-15,9352.472952542004,0.050890585241730284,0.0005089058524173028,1.4307079789112213e-10,0.006923346913179366,0.9930759440356238,7.089081258771121e-07,1.8725027612265706e-14,1.5098786398416286e-05,0.9999849012135821,7.105049517914244e-16
18825.0,8.521606038349507e-15,9110.465570033155,0.050890585241730284,0.0005089058524173028,2.577832742721732e-10,0.010542006953817828,0.9894577292262847,2.6356211421548026e-07,2.6654571919287898e-14,1.979749178575866e-05,0.9999802025081874,1.4909780785121497e-16
19075.0,7.625554906691999e-15,8884.324212475825,0.010000000000000002,0.0005000000000000001,4.755415022980878e-10,0.01621516228239124,0.9837847398051949,9.743687237843966e-08,3.910322649369187e-14,2.6328353566873427e-05,0.999973671646394,3.146418652540662e-17
19325.0,6.82372399912506e-15,8832.917147544533,0.010000000000000002,0.0005000000000000001,4.896200447757395e-10,0.017104788505419844,0.9828951300690048,8.093595531539494e-08,3.8131272054781955e-14,2.6715352344268468e-05,0.9999732846476176,2.2899993133377405e-17
19575.0,6.1062060120205104e-15,8813.152435824528,0.010000000000000002,0.0005000000000000001,4.757209426099693e-10,0.017368930911732226,0.9826309929482518,7.566429511149297e-08,3.625144228641014e-14,2.6540188155299514e-05,0.9999734598118084,2.0329855821500796e-17
19825.0,5.464135399675648e-15,8768.849068230433,0.010000000000000002,0.0005000000000000001,4.848463854629786e-10,0.0181995931990854,0.9818003420122414,6.430382675277443e-08,3.5233846398571676e-14,2.6841097992846025e-05,0.9999731589019719,1.5389981639439794e-17
20075.0,4.8895788329468825e-15,8774.987818508574,0.010000000000000002,0.0005000000000000001,4.305086961451052e-10,0.017425611961117242,0.9825743193630935,6.824528071854682e-08,3.142770525639141e-14,2.555340442281776e-05,0.9999744465955457,1.6577790195538567e-17
20325.0,4.375437176212979e-15,8738.17697561724,0.010000000000000002,0.0005000000000000001,4.2407388442852227e-10,0.017858447456688294,0.9821414916627306,6.045650719373763e-08,2.9742196636941167e-14,2.5404326236965115e-05,0.9999745956737333,1.3326004769011098e-17
20575.0,3.915357771509436e-15,8685.494364255777,0.010000000000000002,0.0005000000000000001,4.411731108981473e-10,0.01896636088916873,0.981033589197694,4.947196405715547e-08,2.9231696691883264e-14,2.5905907175898187e-05,0.9999740940927949,9.48171037018778e-18
20825.0,3.5036559460300107e-15,8650.925275490732,0.010000000000000002,0.0005000000000000001,4.402120147480358e-10,0.019600232720495474,0.9803997232325932,4.360669934135649e-08,2.8072349264830707e-14,2.5966415400605852e-05,0.9999740335845713,7.615547816077683e-18
21075.0,3.135244773153636e-15,8618.144570901906,0.010000000000000002,0.0005000000000000001,4.307579705470522e-10,0.019999950115642033,0.9800000103442835,3.910931648642241e-08,2.6481141171612548e-14,2.5747224078069796e-05,0.9999742527758955,6.248367980408427e-18
21325.0,2.8055722191345024e-15,8634.537800802938,0.010000000000000002,0.0005000000000000001,3.6119748118582327e-10,0.018449797304142933,0.981550157965099,4.4369560540014545e-08,2.2532883520306997e-14,2.379164642960107e-05,0.999976208353548,7.397252933502797e-18
21575.0,2.5105648988489894e-15,8624.838623148697,0.010000000000000002,0.0005000000000000001,3.3012982462693366e-10,0.018005213617753105,0.9819947417529435,4.429917342572718e-08,2.0331646601528122e-14,2.2875267233722083e-05,0.9999771247327458,7.186837705825933e-18
21825.0,2.246577745653984e-15,8606.841684856294,0.010000000000000002,0.0005000000000000001,3.070635352064008e-10,0.017774316855756284,0.9822256400851382,4.275204191919024e-08,1.8507008293018054e-14,2.2145219704406326e-05,0.9999778547802772,6.599390640679809e-18
22075.0,2.0103489734846856e-15,8581.352409807147,0.010000000000000002,0.0005000000000000001,2.918453178411356e-10,0.017796196514464617,0.9822037633489482,3.9844741842248075e-08,1.7077732423883486e-14,2.1644161848732697e-05,0.9999783558381342,5.733442047869467e-18
22325.0,1.7989597747103243e-15,8571.488807531347,0.010000000000000002,0.0005000000000000001,2.639218101424002e-10,0.017248131898115943,0.9827518277999078,4.003805458280994e-08,1.5238517061877033e-14,2.0675633274645208e-05,0.9999793243667101,5.601540055593606e-18
22575.0,1.609798255780531e-15,8559.618359752028,0.010000000000000002,0.0005000000000000001,2.393912685821464e-10,0.01675018510461813,0.9832497747251762,3.993081442977273e-08,1.3608704940067633e-14,1.9768277342953343e-05,0.9999802317226434,5.40164966655039e-18
22825.0,1.4405271650564395e-15,8549.964689396977,0.010000000000000002,0.0005000000000000001,2.1454567170196257e-10,0.016139498860898188,0.9838604605387234,4.0385832793739065e-08,1.2035299309854984e-14,1.878452997267517e-05,0.9999812154700153,5.313931270895366e-18
23075.0,1.2890550140765279e-15,8523.997986477958,0.010000000000000002,0.0005000000000000001,1.9987785685008107e-10,0.015951334262973633,0.9840486274645105,3.8072638075223464e-08,1.0879120841439441e-14,1.8141762902141198e-05,0.999981858237087,4.658756701667527e-18
23325.0,1.1535102354357457e-15,8510.15260615314,0.010000000000000002,0.0005000000000000001,1.8267537014842827e-10,0.015567575920796927,0.98443238633945,3.755707779628342e-08,9.765468173902641e-15,1.7404800611715932e-05,0.9999825951993785,4.4179838939633794e-18
23575.0,1.0322180579765649e-15,8492.508234892424,0.010000000000000002,0.0005000000000000001,1.6703318942120227e-10,0.015198556801702618,0.9848014063783822,3.665288192726106e-08,8.736305528984365e-15,1.6678483811156968e-05,0.9999833215161801,4.1007938618457046e-18
23825.0,9.236798135652637e-16,8484.137835756015,0.010000000000000002,0.0005000000000000001,1.4872546457111626e-10,0.014582224723672432,0.985417737783311,3.7344291122794145e-08,7.683725658637339e-15,1.5793036358976284e-05,0.9999842069636334,4.076944806687686e-18
24075.0,8.265544197709907e-16,8471.667643950468,0.010000000000000002,0.0005000000000000001,1.3338874840467707e-10,0.014057782153385646,0.9859421802749576,3.7438268089025486e-08,6.7783435067577404e-15,1.4994073275260907e-05,0.9999850059267179,3.942710227768647e-18
24325.0,7.396418096504039e-16,8455.627237417968,0.010000000000000002,0.0005000000000000001,1.209070322492024e-10,0.0136465236905631,0.9863534392919285,3.689660138352196e-08,6.020328479145923e-15,1.4303018140239973e-05,0.9999856969818537,3.710712244580958e-18
24575.0,6.618681038987115e-16,8432.816819482314,0.010000000000000002,0.0005000000000000001,1.1132655382648413e-10,0.013384520511063284,0.9866154440687935,3.530881668997121e-08,5.393557840185378e-15,1.3733198825790056e-05,0.9999862668011688,3.3265826391037062e-18
24825.0,5.92272342156443e-16,8417.841379342759,0.010000000000000002,0.0005000000000000001,1.0088593343891397e-10,0.012990840405084544,0.987009124604585,3.488944450076035e-08,4.79336342301988e-15,1.310211906017262e-05,0.9999868978809351,3.1473172293845753e-18
25075.0,5.299946095259515e-16,8389.095610842285,0.010000000000000002,0.0005000000000000001,9.564241791331305e-11,0.012986936051085144,0.987013031674916,3.217835632027079e-08,4.391528256217216e-15,1.2762473526390664e-05,0.9999872375264692,2.6723563137262423e-18
25325.0,4.742654115906186e-16,8367.717803848489,0.010000000000000002,0.0005000000000000001,8.80477302266738e-11,0.01273598883851294,0.9872639801852335,3.0888205741300525e-08,3.937741657256108e-15,1.225699474812343e-05,0.999987743005248,2.410541874296955e-18
25575.0,4.2439616665611605e-16,8359.620017605723,0.010000000000000002,0.0005000000000000001,7.765075146159052e-11,0.012143434684125553,0.9878565335669883,3.167123537403431e-08,3.4302612740349695e-15,1.1540816730448916e-05,0.9999884591832662,2.4121367137533666e-18
25825.0,3.7977069773723515e-16,8374.051240538683,0.010000000000000002,0.0005000000000000001,6.329996634261756e-11,0.010996355518483571,0.9890036079470665,3.647114986690279e-08,2.8291844821655458e-15,1.0472848328398874e-05,0.9999895271516689,2.891521475949396e-18
26075.0,3.3983761916655283e-16,8339.882789370966,0.010000000000000002,0.0005000000000000001,6.074831667443244e-11,0.011082065323291482,0.9889179017870261,3.282893424473313e-08,2.608453227906834e-15,1.0251884101791568e-05,0.9999897481158956,2.3570070837162133e-18
26325.0,3.041035237550076e-16,8338.201764794821,0.010000000000000002,0.0005000000000000001,5.2375449268813156e-11,0.010410484121151213,0.9895894810350293,3.479144398222621e-08,2.2362688408596775e-15,9.549513234476126e-06,0.9999904504867634,2.4831101646744648e-18
26575.0,2.7212688632593404e-16,8311.34471317627,0.010000000000000002,0.0005000000000000001,4.8898636920893773e-11,0.010304055651842546,0.9896959117532875,3.254597115904001e-08,2.0213100187929526e-15,9.225851691586032e-06,0.9999907741483064,2.146857208742661e-18
26825.0,2.435126082955436e-16,8313.876099026389,0.010000000000000002,0.0005000000000000001,4.145681441317561e-11,0.009573485865900268,0.9904264787943676,3.529827517333746e-08,1.7117066714137894e-15,8.524143253010969e-06,0.9999914758567452,2.3431191719807495e-18
27075.0,2.1790713589349504e-16,8298.117218538906,0.010000000000000002,0.0005000000000000001,3.72223103580229e-11,0.009235935611964848,0.9907640293799562,3.497085661793304e-08,1.5055773519532545e-15,8.085273788102744e-06,0.9999919147262103,2.2151319773714137e-18
27325.0,1.9499409170500421e-16,8286.648067439073,0.010000000000000002,0.0005000000000000001,3.262302566494241e-11,0.008770528877548218,0.9912294354473953,3.5642433519329954e-08,1.2991277357131718e-15,7.576520259451008e-06,0.9999924234797392,2.1811777566674097e-18
27575.0,1.744903655584904e-16,8277.101167938741,0.010000000000000002,0.0005000000000000001,2.873216171624604e-11,0.00835486838160553,0.9916450951908037,3.6398858563577535e-08,1.1281521040863997e-15,7.123009755221456e-06,0.9999928769902435,2.163997472510817e-18
27825.0,1.5614261645833403e-16,8265.185004259567,0.010000000000000002,0.0005000000000000001,2.5568101775737075e-11,0.008012954215301103,0.9919870090987286,3.666040219457088e-08,9.871670216245468e-16,6.7300560344186356e-06,0.9999932699439646,2.1026479042120168e-18
28075.0,1.3972414234115304e-16,8247.372878791317,0.010000000000000002,0.0005000000000000001,2.3081518180326605e-11,0.007758040066212935,0.9922419239581621,3.5952543372271636e-08,8.709562039178467e-16,6.398155755435848e-06,0.9999936018442436,1.9548244157984782e-18
28325.0,1.2503207897877403e-16,8241.876516830336,0.010000000000000002,0.0005000000000000001,1.989904046531203e-11,0.00728754664667887,0.992712415662419,3.767100315084929e-08,7.43735476725363e-16,5.9511000362043384e-06,0.999994048899963,2.013460837195831e-18
28575.0,1.118848934179498e-16,8222.93011996842,0.010000000000000002,0.0005000000000000001,1.81110182974457e-11,0.007093494091128146,0.9929064692827607,3.66080002074048e-08,6.605265519887663e-16,5.680962966843056e-06,0.9999943190370325,1.84814339661878e-18
28825.0,1.0012014098614752e-16,8210.91026517703,0.010000000000000002,0.0005000000000000001,1.6047234859298835e-11,0.00678403138481879,0.9932159316519031,3.694723082639093e-08,5.754277608288571e-16,5.353974746149192e-06,0.9999946460252532,1.7981728090853236e-18
29075.0,8.959245814929566e-17,8194.700435904415,0.010000000000000002,0.0005000000000000001,1.4421334378287679e-11,0.006548712489054931,0.9934512510111108,3.6485412995084206e-08,5.061219202707646e-16,5.079070334644601e-06,0.9999949209296649,1.6903446395609698e-18
29325.0,8.01717664215421e-17,8186.013496333855,0.010000000000000002,0.0005000000000000001,1.2602575431827896e-11,0.00620640133265576,0.9937935611357717,3.7518970010707016e-08,4.364394483013489e-16,4.754691866408068e-06,0.9999952453081331,1.6921772315531401e-18
29575.0,7.174166513479958e-17,8176.571929161324,0.010000000000000002,0.0005000000000000001,1.1022674839229655e-11,0.0058853302614194315,0.9941146312558342,3.847172366717771e-08,3.7638755209904447e-16,4.45208223430393e-06,0.9999955479177653,1.6852908533327757e-18
29825.0,6.41979932093744e-17,8171.768718321488,0.010000000000000002,0.0005000000000000001,9.468060691176947e-12,0.005514913771823907,0.9944850457472445,4.047146355185973e-08,3.2040900565635815e-16,4.132782539256216e-06,0.9999958672174605,1.7461074460774977e-18
30075.0,5.744754215513362e-17,8155.725257087127,0.010000000000000002,0.0005000000000000001,8.476071918152128e-12,0.005310207230402756,0.9946897526936379,4.006748317762724e-08,2.807824325816822e-16,3.9121290760351445e-06,0.9999960878709238,1.6457364037424105e-18
30325.0,5.140690440124152e-17,8139.6003606438335,0.010000000000000002,0.0005000000000000001,7.592107639910752e-12,0.005114909068321114,0.9948850512884315,3.963565517502556e-08,2.461488436265751e-16,3.7041807622067014e-06,0.9999962958192375,1.5492216210096914e-18
30575.0,4.600144272459923e-17,8127.365306747224,0.010000000000000002,0.0005000000000000001,6.710706171089702e-12,0.004883968872130414,0.9951159911138581,4.0007300850669324e-08,2.1382865405761605e-16,3.4854992490887145e-06,0.9999965145007507,1.5055413238668959e-18
30825.0,4.1164368043400064e-17,8126.032039500823,0.010000000000000002,0.0005000000000000001,5.686133851247004e-12,0.004535612045846662,0.9954643450503619,4.2898105468036375e-08,1.8022603950548496e-16,3.2141496837680604e-06,0.999996785850316,1.6066670099483105e-18
31075.0,3.6835914181151484e-17,8110.839156975469,0.010000000000000002,0.0005000000000000001,5.0670928957807274e-12,0.004354116443574713,0.9956458408687412,4.268261699391327e-08,1.5734369623492742e-16,3.0353669681929734e-06,0.9999969646330316,1.5250947005482623e-18
31325.0,3.296259940467392e-17,8101.227255864083,0.010000000000000002,0.0005000000000000001,4.424615900860296e-12,0.004124359999581,0.9958755962342161,4.376177819735322e-08,1.3542317803699755e-16,2.839036395813506e-06,0.999997160963604,1.5172802689114469e-18
31575.0,2.949656561174687e-17,8085.9991611183705,0.010000000000000002,0.0005000000000000001,3.955872686192811e-12,0.0039678105616996326,0.996032146007079,4.3427265453289024e-08,1.1857567948624855e-16,2.6857405176675893e-06,0.9999973142594822,1.4358959092818137e-18
31825.0,2.6394987003504284e-17,8065.255890606071,0.010000000000000002,0.0005000000000000001,3.5847886372600834e-12,0.003851367367670327,0.9961485906251746,4.200357040184136e-08,1.0463788787711991e-16,2.5558131650166937e-06,0.9999974441868348,1.3018654310792032e-18
