velocity,density,temperature,si,ca,si0,si1,si2,si3,ca0,ca1,ca2,ca3
12950.0,1.22608746524337e-13,13856.597007414457,0.5,0.0,3.2446643426571563e-14,1.0306767414912744e-05,0.7417283203863406,0.25825970667698456,,,,
13050.0,1.0971637558160338e-13,13848.5264941878,0.5,0.0,4.1029526358776514e-14,1.2722910540838996e-05,0.7747547810914711,0.22523129626441318,,,,
13300.0,9.817964388351419e-14,13393.940646909548,0.5,0.0,9.429163103794918e-14,2.4752346074353185e-05,0.9028108420577128,0.09716426928662061,,,,
13550.0,8.785600528632412e-14,12600.005882188036,0.5,0.0,3.204851263037458e-13,6.089554742175297e-05,0.9813618752527509,0.01857722679447046,,,,
13800.0,7.861790244450754e-14,11641.581746764876,0.5,0.0,1.65992432682804e-12,0.00019133670730331538,0.9981152726980378,0.0016933905849536646,,,,
14050.0,7.035119073113851e-14,10849.998840512126,0.050890585241730284,0.0005089058524173028,8.119093579414443e-12,0.0005680110114045496,0.9992659399696832,0.00016604901076036207,4.188340054171134e-15,3.3158837710748993e-06,0.9999966841128786,3.3460866498510562e-12
14300.0,6.295372788383007e-14,10717.737977789466,0.050890585241730284,0.0005089058524173028,1.06159458257591e-11,0.0007015452789865151,0.9991912328911464,0.00010722181923943819,4.8964738394394605e-15,3.8023454126332236e-06,0.9999961976528687,1.7136869340681664e-12
14550.0,5.633411195010759e-14,10701.512803135958,0.050890585241730284,0.0005089058524173028,1.1370828878534751e-11,0.0007587108911797257,0.9991450926289878,9.619646845238922e-05,5.1386927482724224e-15,4.020907083668424e-06,0.999995979091419,1.4921134286555783e-12
14800.0,5.04105519384562e-14,10625.302346004644,0.050890585241730284,0.0005089058524173028,1.337151473402057e-11,0.0008732822392140809,0.9990536478279052,7.306991950438343e-05,5.647080625406633e-15,4.405051443183345e-06,0.999995594947563,9.882875593443135e-13
15050.0,4.5109857220975285e-14,10532.202778196022,0.050890585241730284,0.0005089058524173028,1.579553298248044e-11,0.0010085123547395464,0.9989378939475579,5.359368190463226e-05,6.152948126640154e-15,4.809894290548268e-06,0.9999951901050914,6.118182244528462e-13
15300.0,4.0366533200848204e-14,10477.091358256599,0.050890585241730284,0.0005089058524173028,1.7406472177481443e-11,0.001112189454895815,0.9988438622113905,4.394831630573698e-05,6.445958392012417e-15,5.1016344289694025e-06,0.9999948983651117,4.529542181500191e-13
15550.0,3.6121972070829574e-14,10399.660549190876,0.050890585241730284,0.0005089058524173028,2.0032909359937604e-11,0.0012623050976395588,0.9987041082982268,3.358658410010905e-05,6.92443363381577e-15,5.5086860731121566e-06,0.9999944913136205,2.9945624207445067e-13
15800.0,3.23237286638818e-14,10281.17742884987,0.050890585241730284,0.0005089058524173028,2.4687381787973064e-11,0.0014991893238424522,0.9984781292152671,2.2681436203068168e-05,7.698886879439785e-15,6.105861293618275e-06,0.9999938941385372,1.6144963296048382e-13
16050.0,2.892487244847865e-14,10177.46291257392,0.050890585241730284,0.0005089058524173028,2.9550577364632595e-11,0.0017464942260100602,0.9982375270122171,1.5978732222171867e-05,8.407682781995177e-15,6.680941837954979e-06,0.9999933190580607,9.29865292582193e-14
16300.0,2.5883407661926743e-14,10112.137482082531,0.050890585241730284,0.0005089058524173028,3.2982349133949917e-11,0.0019424598885265985,0.9980448920350609,1.2648043429998536e-05,8.836186914156777e-15,7.103868137310576e-06,0.9999928961317892,6.467220869691688e-14
16550.0,2.316175441695767e-14,10023.170903347072,0.050890585241730284,0.0005089058524173028,3.9595139207375365e-11,0.002266406688406949,0.9977245005473062,9.092724691786869e-06,9.779646376773435e-15,7.816846800686181e-06,0.9999921831531506,3.889178289904465e-14
16800.0,2.0726284370221296e-14,9940.568663806243,0.050890585241730284,0.0005089058524173028,4.62544459430947e-11,0.002597306043499684,0.9973959731757781,6.720734467953052e-06,1.0588567087797054e-14,8.47897584252524e-06,0.9999915210241226,2.4287592964721438e-14
17050.0,1.8546905215468798e-14,9804.569887814012,0.050890585241730284,0.0005089058524173028,5.942625448421353e-11,0.0031695861740121487,0.9968262417952111,4.171971350458597e-06,1.2028242495277795e-14,9.540228094031235e-06,0.9999904597718827,1.1363907317920072e-14
17300.0,1.659668886748517e-14,9740.167918460666,0.050890585241730284,0.0005089058524173028,6.38237002959754e-11,0.003437691538129312,0.9965589472566441,3.3611414027101282e-06,1.2159674872706238e-14,9.905341937863016e-06,0.9999900946580419,7.983283648890554e-15
17550.0,1.4851538742666926e-14,9640.190761565844,0.050890585241730284,0.0005089058524173028,7.762408783156517e-11,0.004045278851698786,0.9959524125314176,2.3085392594862945e-06,1.3463386275661651e-14,1.0916713378120689e-05,0.9999890832866041,4.418735879661706e-15
17800.0,1.328989202521324e-14,9525.353135944548,0.050890585241730284,0.0005089058524173028,9.723819404385387e-11,0.004853764910771781,0.9951447363392749,1.498652715143036e-06,1.512871127933208e-14,1.216766558183536e-05,0.9999878323344008,2.2269835393454457e-15
18050.0,1.1892453240175879e-14,9433.694108246576,0.050890585241730284,0.0005089058524173028,1.154907876386457e-10,0.00562308269026867,0.994375862669359,1.054524881645075e-06,1.6446947154061025e-14,1.32494675555416e-05,0.9999867505324267,1.274639244908679e-15
18300.0,1.0641955841435824e-14,9314.519772797466,0.050890585241730284,0.0005089058524173028,1.4506613320565326e-10,0.006758872430964021,0.9932404584952563,6.689287136831183e-07,1.840139746204236e-14,1.4746407933484587e-05,0.9999852535920477,6.147190123651298e-16
18550.0,9.522948868823592e-15,9135.94333726372,0.050890585241730284,0.0005089058524173028,2.19971493527797e-10,0.009190617499152906,0.990809059219855,3.2306102078019853e-07,2.338316908852186e-14,1.788959286128807e-05,0.999982110407115,1.9444859679625792e-16
18800.0,8.521606038349507e-15,8910.435104033992,0.050890585241730284,0.0005089058524173028,3.962449216347249e-10,0.013983249153295433,0.9860166289573139,1.2149314570612365e-07,3.3455095401362265e-14,2.350596690279931e-05,0.9999764940330638,4.189754806487782e-17
19050.0,7.625554906691999e-15,8705.440689356932,0.010000000000000002,0.0005000000000000001,6.92216712109043e-10,0.020743607999659644,0.9792563434498988,4.7858224923206034e-08,4.7060160635948196e-14,3.0432100263295387e-05,0.9999695678996896,9.723049976703767e-18
19300.0,6.82372399912506e-15,8666.775902912883,0.010000000000000002,0.0005000000000000001,7.056385091694825e-10,0.021734196456971114,0.978265761687734,4.114965624775646e-08,4.602014377622246e-14,3.085909046129865e-05,0.9999691409094927,7.540033309112999e-18
19550.0,6.1062060120205104e-15,8674.678932381206,0.010000000000000002,0.0005000000000000001,6.184610023085392e-10,0.020634366451567968,0.9793655886220252,4.430794587926757e-08,4.0669331422515875e-14,2.920464620514886e-05,0.9999707953537541,8.281068597390161e-18
19800.0,5.464135399675648e-15,8601.128544173187,0.010000000000000002,0.0005000000000000001,7.021291847748618e-10,0.02319482539625554,0.9768051416665446,3.223507057655219e-08,4.263703462054052e-14,3.107306288074422e-05,0.9999689269370766,4.944743547402745e-18
20050.0,4.8895788329468825e-15,8564.557383254567,0.010000000000000002,0.0005000000000000001,7.096816562166428e-10,0.024168866636884015,0.97583110469418,2.7959254279129263e-08,4.1402426847205314e-14,3.1366984147260645e-05,0.9999686330158114,3.8807434136848605e-18
20300.0,4.375437176212979e-15,8538.483633946942,0.010000000000000002,0.0005000000000000001,6.930485697196844e-10,0.02462529726315912,0.9753746765206287,2.5523163615809157e-08,3.9278630092355964e-14,3.116591944498003e-05,0.9999688340805157,3.295969359848781e-18
20550.0,3.915357771509436e-15,8509.00163803559,0.010000000000000002,0.0005000000000000001,6.773656039197257e-10,0.02510545052313066,0.9748945257387509,2.3060752825177377e-08,3.7142014687535386e-14,3.093003846874516e-05,0.999969069961494,2.743313627978974e-18
20800.0,3.5036559460300107e-15,8498.962069639001,0.010000000000000002,0.0005000000000000001,6.260979435619303e-10,0.024679982093996113,0.9753199944603802,2.28195258028834e-08,3.3922296323402596e-14,2.9952831792488627e-05,0.9999700471681736,2.637171006343009e-18
21050.0,3.135244773153636e-15,8484.721542392423,0.010000000000000002,0.0005000000000000001,5.755078519734242e-10,0.024176396346837454,0.975823580670841,2.2406813716185098e-08,3.065590573779343e-14,2.885422714805592e-05,0.9999711457728212,2.4858445109059725e-18
21300.0,2.8055722191345024e-15,8437.560007792441,0.010000000000000002,0.0005000000000000001,5.921177182343938e-10,0.025488534771685497,0.9745114460441605,1.8592036423093474e-08,2.991311169169514e-14,2.927943663911154e-05,0.999970720563331,1.8067571972028523e-18
21550.0,2.5105648988489894e-15,8416.188793672774,0.010000000000000002,0.0005000000000000001,5.592579947641828e-10,0.025414755465359276,0.9745852264193189,1.7556063877591893e-08,2.755383492687355e-14,2.856681659191276e-05,0.9999714331833806,1.6045239742245743e-18
21800.0,2.246577745653984e-15,8426.581995554683,0.010000000000000002,0.0005000000000000001,4.765609636586355e-10,0.023696595087135338,0.9763033850048317,1.9431471907148323e-08,2.370456925178323e-14,2.659531580299866e-05,0.9999734046841733,1.825581511354933e-18
22050.0,2.0103489734846856e-15,8403.35537288526,0.010000000000000002,0.0005000000000000001,4.4850658676598017e-10,0.023574263934260757,0.9764257173214264,1.829580636013968e-08,2.1705519402179763e-14,2.586856295541879e-05,0.999974131437023,1.6077039093052816e-18
22300.0,1.7989597747103243e-15,8392.588722735865,0.010000000000000002,0.0005000000000000001,4.064729056311291e-10,0.022882230185837505,0.9771177511092505,1.8298439028872005e-08,1.9399410883895077e-14,2.474055109372532e-05,0.9999752594488869,1.5573679919098263e-18
22550.0,1.609798255780531e-15,8365.529342269505,0.010000000000000002,0.0005000000000000001,3.8635523268389565e-10,0.02291240723257623,0.9770875754613831,1.6919685299118575e-08,1.7860072767673653e-14,2.4161764075317324e-05,0.9999758382359069,1.3315366396980416e-18
22800.0,1.4405271650564395e-15,8355.00603770351,0.010000000000000002,0.0005000000000000001,3.480319970473295e-10,0.022152704209334295,0.977847278443895,1.699873870424429e-08,1.5866481344703206e-14,2.3025795668819826e-05,0.9999769742043153,1.2961738703917033e-18
23050.0,1.2890550140765279e-15,8339.58208228404,0.010000000000000002,0.0005000000000000001,3.1995725429058677e-10,0.021704304313376995,0.9782956787590414,1.660762446025896e-08,1.4306432048342453e-14,2.2158547407077018e-05,0.9999778414525785,1.2098847838106043e-18
23300.0,1.1535102354357457e-15,8323.811038198073,0.010000000000000002,0.0005000000000000001,2.922488886223219e-10,0.021175958418364445,0.9788240250104486,1.6278938087885372e-08,1.2810237302282236e-14,2.1239205776942067e-05,0.9999787607942103,1.1316641790546157e-18
23550.0,1.0322180579765649e-15,8306.26978137162,0.010000000000000002,0.0005000000000000001,2.685481797706237e-10,0.020741694272569187,0.979258289650691,1.5808191730474043e-08,1.1515898402467926e-14,2.041319462260114e-05,0.9999795868053659,1.043131588163382e-18
23800.0,9.236798135652637e-16,8283.903017912608,0.010000000000000002,0.0005000000000000001,2.5035656405789784e-10,0.02050891360625171,0.9794910711549537,1.498843792657808e-08,1.0445843440632117e-14,1.9744136996434168e-05,0.9999802558629931,9.255465801441675e-19
24050.0,8.265544197709907e-16,8276.449923360184,0.010000000000000002,0.0005000000000000001,2.2228204334272993e-10,0.019642625722285992,0.9803573587247749,1.53306571182058e-08,9.173064271316323e-15,1.867655345204184e-05,0.9999813234465389,9.249667950440274e-19
24300.0,7.396418096504039e-16,8299.496802657302,0.010000000000000002,0.0005000000000000001,1.7830373337533542e-10,0.017604855653728525,0.9823951258339957,1.8333972088091984e-08,7.525917199578493e-15,1.686338983100926e-05,0.9999831366101615,1.1810590564526975e-18
24550.0,6.618681038987115e-16,8265.577260154285,0.010000000000000002,0.0005000000000000001,1.7260684008482972e-10,0.017841470483801948,0.9821585129562815,1.6387309677308938e-08,6.997499581986295e-15,1.6590766523529473e-05,0.9999834092334695,9.550546573603403e-19
24800.0,5.92272342156443e-16,8235.878370861763,0.010000000000000002,0.0005000000000000001,1.6325436524396096e-10,0.017809386880461377,0.9821905979037051,1.5052579208923625e-08,6.385897366176208e-15,1.6131131019287066e-05,0.9999838688689744,8.02880667922856e-19
25050.0,5.299946095259515e-16,8236.246914537354,0.010000000000000002,0.0005000000000000001,1.4067352659363415e-10,0.016726305893670093,0.9832736779006078,1.6065048527878113e-08,5.488343824454133e-15,1.5041625638843833e-05,0.9999849583743557,8.56612703834792e-19
25300.0,4.742654115906186e-16,8222.061295539794,0.010000000000000002,0.0005000000000000001,1.2660373414483121e-10,0.01616244847259135,0.983837535443258,1.595754675244905e-08,4.8477391281820846e-15,1.4298622365642042e-05,0.9999857013776294,8.148582512994943e-19
25550.0,4.2439616665611605e-16,8221.492098113344,0.010000000000000002,0.0005000000000000001,1.0896728935619164e-10,0.015167886437290404,0.9848320964589898,1.699475259515324e-08,4.156986262418721e-15,1.3318099232949994e-05,0.9999866819007629,8.652053874218076e-19
25800.0,3.7977069773723515e-16,8220.206594984427,0.010000000000000002,0.0005000000000000001,9.408138573995123e-11,0.014263359791101922,0.9857366220935809,1.802123567044051e-08,3.572629966416591e-15,1.242296468604156e-05,0.9999875770353104,9.128122861222258e-19
26050.0,3.3983761916655283e-16,8193.060843822293,0.010000000000000002,0.0005000000000000001,8.855094691189534e-11,0.014192498820347881,0.9858074843753083,1.671579278599592e-08,3.2523651419170067e-15,1.2054976870589325e-05,0.9999879450231262,7.800872536431448e-19
26300.0,3.041035237550076e-16,8189.521582857969,0.010000000000000002,0.0005000000000000001,7.626717751719663e-11,0.013325022072508928,0.9866749602145236,1.7636700257401482e-08,2.781760816619913e-15,1.1219014495906185e-05,0.9999887809855014,8.133886843800737e-19
26550.0,2.7212688632593404e-16,8163.751985653129,0.010000000000000002,0.0005000000000000001,7.134299791053633e-11,0.01320560850679918,0.9867943749376781,1.64841797202895e-08,2.5203034746927845e-15,1.0853291808603927e-05,0.9999891467081888,7.029095688061601e-19
26800.0,2.435126082955436e-16,8169.9825887110965,0.010000000000000002,0.0005000000000000001,6.010114222068632e-11,0.012219211811870322,0.9877807699641186,1.816390997052334e-08,2.1306410374289758e-15,1.0009453363932098e-05,0.999989990546634,7.882596271820704e-19
27050.0,2.1790713589349504e-16,8157.291668613158,0.010000000000000002,0.0005000000000000001,5.346434584110688e-11,0.011717508423384385,0.988282473275716,1.8247435332652593e-08,1.8627812782522006e-15,9.455318631542441e-06,0.9999905446813665,7.613571884183533e-19
27300.0,1.9499409170500421e-16,8129.174086042672,0.010000000000000002,0.0005000000000000001,5.028235172065013e-11,0.011653767846631066,0.9883462152382443,1.686484238347473e-08,1.6921128349450926e-15,9.166405067124425e-06,0.9999908335949311,6.456020446738554e-19
27550.0,1.744903655584904e-16,8110.477769580895,0.010000000000000002,0.0005000000000000001,4.562381609988701e-11,0.011321255509141873,0.9886787280305331,1.6414701351267593e-08,1.4986534171894602e-15,8.73706081023976e-06,0.9999912629391883,5.929778665024238e-19
27800.0,1.5614261645833403e-16,8105.546932325314,0.010000000000000002,0.0005000000000000001,3.9556000652604643e-11,0.010674937102386756,0.9893250456974799,1.7160577422101298e-08,1.287889883636321e-15,8.156286605795557e-06,0.9999918437133928,6.100110651176391e-19
28050.0,1.3972414234115304e-16,8101.017729496733,0.010000000000000002,0.0005000000000000001,3.428316254700088e-11,0.010063037149135404,0.9899369448522747,1.7964306668603686e-08,1.1067737586829194e-15,7.613390283424151e-06,0.9999923866097155,6.291549078913146e-19
28300.0,1.2503207897877403e-16,8096.798979858806,0.010000000000000002,0.0005000000000000001,2.934853080591819e-11,0.009409935317343047,0.9905900456732614,1.898004700590961e-08,9.401387195256814e-16,7.058147607777011e-06,0.9999929418523913,6.555408210053607e-19
28550.0,1.118848934179498e-16,8087.384406752306,0.010000000000000002,0.0005000000000000001,2.5835378624250104e-11,0.008961453989385765,0.9910385266110695,1.9373709382443663e-08,8.16076103063006e-16,6.634645106314711e-06,0.9999933653548928,6.494722752878997e-19
28800.0,1.0012014098614752e-16,8063.619457170868,0.010000000000000002,0.0005000000000000001,2.3933800216801452e-11,0.008825060497991685,0.9911749211781501,1.829992448641671e-08,7.334673712001437e-16,6.386166140124819e-06,0.9999936138338592,5.696425822145206e-19
29050.0,8.959245814929566e-17,8049.117660162349,0.010000000000000002,0.0005000000000000001,2.1402107682436894e-11,0.008491531917024035,0.991508449864783,1.819679078284959e-08,6.43027832398753e-16,6.0452624021704715e-06,0.9999939547375972,5.410711745451704e-19
29300.0,8.01717664215421e-17,8042.777906627609,0.010000000000000002,0.0005000000000000001,1.8596737062980966e-11,0.008018065129340007,0.9919819159475097,1.8904553644210265e-08,5.528361559357381e-16,5.646731006901263e-06,0.9999943532689926,5.506695584372044e-19
29550.0,7.174166513479958e-17,8026.444588086704,0.010000000000000002,0.0005000000000000001,1.6675464443781704e-11,0.007729069433567508,0.9922709118954159,1.8654341061566083e-08,4.850282890722164e-16,5.350055461961147e-06,0.9999946499445376,5.1599052755370425e-19
29800.0,6.41979932093744e-17,8001.833571573978,0.010000000000000002,0.0005000000000000001,1.5467226713488567e-11,0.00761776407054439,0.9923822183732559,1.7540732570521942e-08,4.3594041203025435e-16,5.151226311207222e-06,0.9999948487736884,4.48833734765053e-19
30050.0,5.744754215513362e-17,7981.134862668202,0.010000000000000002,0.0005000000000000001,1.4166628911335422e-11,0.007445770100212286,0.9925542130571267,1.682849451862132e-08,3.8860997303167763e-16,4.931089190225939e-06,0.9999950689108094,4.0310466060658463e-19
30300.0,5.140690440124152e-17,7967.951475451913,0.010000000000000002,0.0005000000000000001,1.2573026804739024e-11,0.007128854515123437,0.9928711286011827,1.6871120962652784e-08,3.3860867190756264e-16,4.649710286062668e-06,0.9999953502897135,3.8730628751492807e-19
30550.0,4.600144272459923e-17,7966.742867914364,0.010000000000000002,0.0005000000000000001,1.0660553454697243e-11,0.006623906308002645,0.9933760755885923,1.8092744534955476e-08,2.8576480205552584e-16,4.291140208867295e-06,0.9999957088597908,4.134347392569941e-19
30800.0,4.1164368043400064e-17,7956.618237196851,0.010000000000000002,0.0005000000000000001,9.360456885363213e-12,0.006297428327828001,0.993702553224261,1.8438550513788417e-08,2.471774629858097e-16,4.026067064611706e-06,0.9999959739329352,4.0769944080446754e-19
31050.0,3.6835914181151484e-17,7937.899172439144,0.010000000000000002,0.0005000000000000001,8.471686911939199e-12,0.006107307270159364,0.99389267479308,1.7928288932317154e-08,2.1822430285920497e-16,3.830725925248703e-06,0.9999961692740744,3.7318742909337813e-19
31300.0,3.296259940467392e-17,7922.314800618605,0.010000000000000002,0.0005000000000000001,7.578296280837146e-12,0.0058777016362364905,0.9941222806199844,1.7736200788075598e-08,1.9109983027548193e-16,3.624903047905572e-06,0.9999963750969519,3.5097116371938444e-19
31550.0,2.949656561174687e-17,7910.243379950552,0.010000000000000002,0.0005000000000000001,6.6936749569387e-12,0.005609799945256906,0.9943901821608984,1.7887151072449906e-08,1.6589446436885793e-16,3.40986674169448e-06,0.9999965901332581,3.4025426825213956e-19
31800.0,2.6394987003504284e-17,7895.15462868162,0.010000000000000002,0.0005000000000000001,5.969988590348804e-12,0.005388369361751602,0.9946116128804625,1.7751815884102004e-08,1.449186480990696e-16,3.2217381595433683e-06,0.9999967782618403,3.2142584022169647e-19
32050.0,2.3619540935223472e-17,7883.76005774631,0.010000000000000002,0.0005000000000000001,5.251607059518352e-12,0.005128998640759145,0.9948709833691253,1.798486385443643e-08,1.2538837001746794e-16,3.0243257073938963e-06,0.9999969756742924,3.136492899761019e-19
