velocity,density,temperature,si,ca,si0,si1,si2,si3,ca0,ca1,ca2,ca3
13150.0,1.0971637558160338e-13,13439.535481746674,0.5,0.0,6.382124468827387e-14,1.813616942659536e-05,0.8698194949669543,0.13016210430023967,,,,
13350.0,9.817964388351419e-14,13248.552877742435,0.5,0.0,1.0309036518840414e-13,2.658507779589471e-05,0.9197970375142632,0.0801762958363789,,,,
13600.0,8.785600528632412e-14,12573.763937217951,0.5,0.0,3.1857332744975473e-13,6.071722001660354e-05,0.9818729694262964,0.018066311129678575,,,,
13850.0,7.861790244450754e-14,11517.661004498115,0.5,0.0,2.007985348835638e-12,0.00021743722357295226,0.9985385683017921,0.0012439944688000379,,,,
14100.0,7.035119073113851e-14,10775.740371668802,0.04113110539845759,0.0005141388174807199,9.115852717480104e-12,0.0006138863912036454,0.9992505317215166,0.00013558187814384813,4.436555150424106e-15,3.4678434430759083e-06,0.9999965321541502,2.4021591052985804e-12
14350.0,6.295372788383007e-14,10654.964420648299,0.04113110539845759,0.0005141388174807199,1.1705011718267205e-11,0.0007490294925921305,0.9991608492405704,9.01212551248759e-05,5.1350026762703054e-15,3.947085891136512e-06,0.9999960529128151,1.2886025819333637e-12
14600.0,5.633411195010759e-14,10591.819204580255,0.04113110539845759,0.0005141388174807199,1.3427375720478261e-11,0.00084798370989528,0.9990808734022717,7.114287440108296e-05,5.561761325331536e-15,4.280541599964169e-06,0.9999957194574872,9.071910590971458e-13
14850.0,5.04105519384562e-14,10547.690341767699,0.04113110539845759,0.0005141388174807199,1.4508901562227716e-11,0.0009229734395638215,0.9990166764681538,6.035007777033916e-05,5.7656661185802306e-15,4.507366273766189e-06,0.9999954926330109,7.096504048040258e-13
15100.0,4.5109857220975285e-14,10469.065970652517,0.04113110539845759,0.0005141388174807199,1.7381972048923623e-11,0.0010752364053252992,0.9988798522333671,4.491134392419241e-05,6.435875666133057e-15,4.985347640069627e-06,0.9999950146518968,4.566382488081953e-13
15350.0,4.0366533200848204e-14,10405.960545834825,0.04113110539845759,0.0005141388174807199,1.953130525947746e-11,0.0012010559708993743,0.9987631526476497,3.579136191889475e-05,6.82846861427114e-15,5.334307508359838e-06,0.9999946656921616,3.2329395194004574e-13
15600.0,3.6121972070829574e-14,10263.085582632477,0.04113110539845759,0.0005141388174807199,2.5424532717016288e-11,0.0014790007620212146,0.9984987218829943,2.2277329559715177e-05,7.852042366587414e-15,6.05664977653212e-06,0.9999939433500622,1.5334610784737474e-13
15850.0,3.23237286638818e-14,10157.78923520423,0.04113110539845759,0.0005141388174807199,3.066100978605526e-11,0.0017313809597343476,0.9982530595070984,1.5559502505996562e-05,8.621342644004455e-15,6.652590169968334e-06,0.9999933474097342,8.722653374772162e-14
16100.0,2.892487244847865e-14,10156.86825859296,0.04113110539845759,0.0005141388174807199,3.102313838945575e-11,0.0018039599626301379,0.9981811684435498,1.4871562796820593e-05,8.672422424298702e-15,6.827882571770251e-06,0.9999931721173365,8.312392439350575e-14
16350.0,2.5883407661926743e-14,10059.351147030555,0.04113110539845759,0.0005141388174807199,3.630452991215139e-11,0.0020705245973602856,0.9979187637559523,1.071161038288782e-05,9.299234456224112e-15,7.3826912179481546e-06,0.9999926173087235,4.932007741662319e-14
16600.0,2.316175441695767e-14,9975.031491051619,0.04113110539845759,0.0005141388174807199,4.1506984066890747e-11,0.002339980545145094,0.9976520057974203,8.013615927613169e-06,9.845229630969547e-15,7.905819323968412e-06,0.9999920941806351,3.1105522279834394e-14
16850.0,2.0726284370221296e-14,9873.608349428934,0.04113110539845759,0.0005141388174807199,5.0358492765913803e-11,0.0027493276266560168,0.9972451193143077,5.5530086777180595e-06,1.0885375727282984e-14,8.709011714161368e-06,0.9999912909882575,1.7488356019260515e-14
17100.0,1.8546905215468798e-14,9754.663164746731,0.04113110539845759,0.0005141388174807199,6.351427960734455e-11,0.003313860335900895,0.9966825383427781,3.6012578067670283e-06,1.2303418797901267e-14,9.746924890246227e-06,0.9999902530750887,8.829612069899677e-15
17350.0,1.659668886748517e-14,9654.543523950637,0.04113110539845759,0.0005141388174807199,7.510473053039433e-11,0.0038288052187559003,0.9961686735029327,2.5212032067440436e-06,1.324709671985569e-14,1.0567591717788698e-05,0.999989432408264,4.983312770251082e-15
17600.0,1.4851538742666926e-14,9561.446788679377,0.04113110539845759,0.0005141388174807199,8.977061664342984e-11,0.0044541582990786244,0.9955440704882539,1.771122896909287e-06,1.448996340134061e-14,1.1552682032126604e-05,0.9999884473179506,2.853566052445579e-15
17850.0,1.328989202521324e-14,9495.304904450148,0.04113110539845759,0.0005141388174807199,1.0139982651652662e-10,0.004992022115313165,0.9950066129269235,1.364856363580847e-06,1.5345934699294855e-14,1.2334818036048999e-05,0.9999876651819468,1.8968218212213634e-15
18100.0,1.1892453240175879e-14,9343.707207896883,0.04113110539845759,0.0005141388174807199,1.4218524456059777e-10,0.00644929293576069,0.9935499562101449,7.507119092614833e-07,1.858782967381274e-14,1.4468454394993174e-05,0.9999855315455856,7.386783291731777e-16
18350.0,1.0641955841435824e-14,9237.13433391006,0.04113110539845759,0.0005141388174807199,1.734228212126719e-10,0.007603163019068233,0.9923963395496722,4.972578367534507e-07,2.0406277838006438e-14,1.5894095801404228e-05,0.9999841059041779,3.812501571724717e-16
18600.0,9.522948868823592e-15,9075.606726103208,0.04113110539845759,0.0005141388174807199,2.5399735641917745e-10,0.010104220229494386,0.9898955253985228,2.541179853728097e-07,2.5411997869162997e-14,1.900330632352282e-05,0.9999809966936509,1.3212616263928667e-16
18850.0,8.521606038349507e-15,8848.323504389818,0.04113110539845759,0.0005141388174807199,4.524558505034224e-10,0.015260662409188037,0.9847392420667374,9.507161883260981e-08,3.5772848422018976e-14,2.4756849398285128e-05,0.999975243150566,2.799006895549047e-17
19100.0,7.625554906691999e-15,8607.450326907665,0.010000000000000002,0.0005000000000000001,9.062521981600674e-10,0.024736463259636927,0.9752635050896677,3.074444313860018e-08,5.5333865701517854e-14,3.416135369327953e-05,0.9999658386462513,4.811870682210659e-18
19350.0,6.82372399912506e-15,8544.648918469451,0.010000000000000002,0.0005000000000000001,1.0062455466545856e-09,0.027398798971307724,0.9726011767307041,2.3291742595721612e-08,5.738559476863606e-14,3.604409194071717e-05,0.9999639559080019,3.0732405596869585e-18
19600.0,6.1062060120205104e-15,8525.537865726126,0.010000000000000002,0.0005000000000000001,9.715367637431939e-10,0.027705773549140854,0.9722942036462348,2.183308758747593e-08,5.4288894262797763e-14,3.5700896774489324e-05,0.9999642991031712,2.731437644320317e-18
19850.0,5.464135399675648e-15,8475.781701660453,0.010000000000000002,0.0005000000000000001,1.0243109561744777e-09,0.02967078385238189,0.9703291974203199,1.770298723038256e-08,5.4186114419708295e-14,3.673271462717812e-05,0.9999632672853186,1.9294677376091006e-18
20100.0,4.8895788329468825e-15,8443.152882213719,0.010000000000000002,0.0005000000000000001,1.0177477763999885e-09,0.030571934838000137,0.9694280484878802,1.5656371791718318e-08,5.192287404970719e-14,3.676683538192229e-05,0.9999632331645661,1.5567122490559295e-18
20350.0,4.375437176212979e-15,8404.786971854875,0.010000000000000002,0.0005000000000000001,1.0400838651032792e-09,0.032081058914577174,0.9679189266932904,1.335204870301551e-08,5.085098086483742e-14,3.7321016206033406e-05,0.999962678983743,1.1912368598998113e-18
20600.0,3.915357771509436e-15,8401.15926513418,0.010000000000000002,0.0005000000000000001,9.435926847123274e-10,0.03115714132705953,0.9688428441073478,1.3621999979774848e-08,4.593413096954979e-14,3.585777249610477e-05,0.999964142227458,1.2011818903807292e-18
20850.0,3.5036559460300107e-15,8390.960266147422,0.010000000000000002,0.0005000000000000001,8.625234634766015e-10,0.03041072183801306,0.9695892637274084,1.3572055003367654e-08,4.1477993995195476e-14,3.4495908886431267e-05,0.9999655040910721,1.1609531066094556e-18
21100.0,3.135244773153636e-15,8370.83694222357,0.010000000000000002,0.0005000000000000001,8.142053663997581e-10,0.030310679922975967,0.9696893064042779,1.2858540759610374e-08,3.8248938155072235e-14,3.366992897049214e-05,0.9999663300709912,1.0374561789359529e-18
21350.0,2.8055722191345024e-15,8377.223308730077,0.010000000000000002,0.0005000000000000001,7.162519659074686e-10,0.02885376317865728,0.971146222325129,1.3779961630028596e-08,3.385632162478206e-14,3.1897757481785795e-05,0.9999681022424843,1.1303893763344481e-18
21600.0,2.5105648988489894e-15,8341.33804586859,0.010000000000000002,0.0005000000000000001,7.039693669090461e-10,0.029526477003595383,0.9704735101525356,1.213989966998727e-08,3.192545315993835e-14,3.1654234706221654e-05,0.9999683457652618,8.978146718776523e-19
21850.0,2.246577745653984e-15,8337.723395962581,0.010000000000000002,0.0005000000000000001,6.330874742900083e-10,0.028515502045965604,0.9714844848654697,1.2455477346385977e-08,2.8554769866644283e-14,3.023866513265171e-05,0.9999697613348387,9.102438663778074e-19
22100.0,2.0103489734846856e-15,8306.30677148741,0.010000000000000002,0.0005000000000000001,6.230882194661475e-10,0.02920539461366126,0.9707945936712151,1.1092035412290608e-08,2.7095240592316496e-14,3.0088229797420466e-05,0.9999699117701755,7.3970415439878e-19
22350.0,1.7989597747103243e-15,8285.219662316884,0.010000000000000002,0.0005000000000000001,5.796108359945527e-10,0.02883621249216665,0.9711637763541151,1.0574107407516984e-08,2.4568055325926866e-14,2.9087779302752264e-05,0.9999709122206727,6.622980646915728e-19
22600.0,1.609798255780531e-15,8272.810780063432,0.010000000000000002,0.0005000000000000001,5.281545489184154e-10,0.02809095468669397,0.9719090343048259,1.0480325585455127e-08,2.2033696172869722e-14,2.7886544579780397e-05,0.9999721134553983,6.321151965050864e-19
22850.0,1.4405271650564395e-15,8267.265858678022,0.010000000000000002,0.0005000000000000001,4.669610973292675e-10,0.02683302030911115,0.973166968407359,1.0816568772827006e-08,1.931730034233738e-14,2.6342161656592575e-05,0.999973657838324,6.407634161661254e-19
23100.0,1.2890550140765279e-15,8237.581105355286,0.010000000000000002,0.0005000000000000001,4.47181393190404e-10,0.027000385909573325,0.9729996037916037,9.851641713835391e-09,1.7853350453033478e-14,2.5802894519421142e-05,0.9999741971054626,5.342341876699817e-19
23350.0,1.1535102354357457e-15,8218.78978473418,0.010000000000000002,0.0005000000000000001,4.15653072540923e-10,0.02664542513444287,0.973354565000862,9.44904208246803e-09,1.6210410230449097e-14,2.4952927341887993e-05,0.9999750470726418,4.840716423145827e-19
23600.0,1.0322180579765649e-15,8209.171765607405,0.010000000000000002,0.0005000000000000001,3.751372118554561e-10,0.025795346118535796,0.9742046440088784,9.497448545794895e-09,1.443792444172566e-14,2.3811360060741652e-05,0.9999761886399248,4.721479084463549e-19
23850.0,9.236798135652637e-16,8199.078582093689,0.010000000000000002,0.0005000000000000001,3.3575335647893137e-10,0.02483747398230174,0.9751625160949606,9.586984237495574e-09,1.274360790399727e-14,2.260514200116728e-05,0.9999773948579861,4.617624131721932e-19
24100.0,8.265544197709907e-16,8194.360839251814,0.010000000000000002,0.0005000000000000001,2.9335725352103186e-10,0.023542890049993086,0.9764570996629157,9.993733873481282e-09,1.1046407683173639e-14,2.1208464784419452e-05,0.9999787915352045,4.738064568288833e-19
24350.0,7.396418096504039e-16,8177.708100008345,0.010000000000000002,0.0005000000000000001,2.6945325318766693e-10,0.02305457189267316,0.976945418119803,9.718070782673988e-09,9.93095281935259e-15,2.0382058494092625e-05,0.999979617941496,4.377784159587382e-19
24600.0,6.618681038987115e-16,8160.269276465975,0.010000000000000002,0.0005000000000000001,2.4692822584408617e-10,0.02254294234268861,0.9774570479693024,9.441080650494922e-09,8.898860248015864e-15,1.9554132458014703e-05,0.9999804458675331,4.030588124797297e-19
24850.0,5.92272342156443e-16,8170.236119926746,0.010000000000000002,0.0005000000000000001,2.046034473177233e-10,0.020640156974204318,0.9793598321680499,1.065314230868795e-08,7.436255198999046e-15,1.7897194418575702e-05,0.9999821028055739,4.67747263360901e-19
25100.0,5.299946095259515e-16,8143.620036552007,0.010000000000000002,0.0005000000000000001,1.9272708018585496e-10,0.020547930117450184,0.9794520598070673,9.88275554062233e-09,6.777888173741571e-15,1.7378690135953046e-05,0.9999826213098573,4.0002042139588714e-19
25350.0,4.742654115906186e-16,8137.3882922649755,0.010000000000000002,0.0005000000000000001,1.7005323925024412e-10,0.019600861427977224,0.9803991282214769,1.0180492647293285e-08,5.921035597897608e-15,1.638483866214837e-05,0.9999836151613319,4.0379232372986906e-19
25600.0,4.2439616665611605e-16,8122.638369286331,0.010000000000000002,0.0005000000000000001,1.5442083059413129e-10,0.019051684490877175,0.9809483053294293,1.0025272671342839e-08,5.271779218030541e-15,1.565116175474954e-05,0.9999843488382401,3.797490741921151e-19
25850.0,3.7977069773723515e-16,8113.159198014956,0.010000000000000002,0.0005000000000000001,1.3708967349027982e-10,0.01824638772509233,0.9817536019547749,1.0183043175066056e-08,4.616149099522373e-15,1.4787590900078714e-05,0.9999852124090953,3.7424484860495846e-19
26100.0,3.3983761916655283e-16,8092.144842230516,0.010000000000000002,0.0005000000000000001,1.260883243951888e-10,0.017884379433891595,0.9821156106868361,9.753183989523725e-09,4.133155454926569e-15,1.4192947149955118e-05,0.9999858070528459,3.3574953759463407e-19
26350.0,3.041035237550076e-16,8091.671814043419,0.010000000000000002,0.0005000000000000001,1.0808054932187971e-10,0.01674015276050525,0.9832598367107503,1.0420663829612062e-08,3.5302442954165213e-15,1.3188875238959456e-05,0.9999868111247576,3.5768993962933336e-19
26600.0,2.7212688632593404e-16,8081.137849483057,0.010000000000000002,0.0005000000000000001,9.558017326942814e-11,0.015992056425796177,0.9840079329036495,1.0574974132092807e-08,3.0754881479932504e-15,1.2427394021120983e-05,0.9999875726059758,3.5098637466618627e-19
26850.0,2.435126082955436e-16,8057.981164952511,0.010000000000000002,0.0005000000000000001,8.822112667212725e-11,0.01571121388730578,0.9842887759910727,1.0033400454674605e-08,2.7563734020559234e-15,1.1940858396817627e-05,0.9999880591416005,3.0972227252707187e-19
27100.0,2.1790713589349504e-16,8039.470152139483,0.010000000000000002,0.0005000000000000001,8.074537483993315e-11,0.015350085431162815,0.9846499047823541,9.705737741207104e-09,2.4620256528099946e-15,1.1438363401260655e-05,0.9999885616365962,2.8259061253091844e-19
27350.0,1.9499409170500421e-16,8048.384932271561,0.010000000000000002,0.0005000000000000001,6.665106863850632e-11,0.014016968580441562,0.9859830204107942,1.0942113009395325e-08,2.046851131228717e-15,1.0439603787384986e-05,0.9999895603962106,3.2706776699757295e-19
27600.0,1.744903655584904e-16,8050.00531415164,0.010000000000000002,0.0005000000000000001,5.640341402559225e-11,0.013009507220891862,0.9869904808604242,1.186228067627759e-08,1.729983660955121e-15,9.636827106433135e-06,0.9999903631728918,3.5591357434938605e-19
27850.0,1.5614261645833403e-16,8056.832315869937,0.010000000000000002,0.0005000000000000001,4.6754257296431496e-11,0.011911664543798708,0.9880883221636428,1.3245804173818389e-08,1.4407834922587806e-15,8.808717414650974e-06,0.9999911912825838,4.0542205608005774e-19
28100.0,1.3972414234115304e-16,8021.805412386825,0.010000000000000002,0.0005000000000000001,4.524943460738414e-11,0.01207148130082088,0.9879285069210205,1.173290914438494e-08,1.335237214954247e-15,8.655424593762614e-06,0.999991344575405,3.217833337316605e-19
28350.0,1.2503207897877403e-16,8003.482246286463,0.010000000000000002,0.0005000000000000001,4.0993804596612066e-11,0.011715459046930178,0.9882845294842624,1.1427813749424096e-08,1.1807803655452626e-15,8.242852976524809e-06,0.9999917571470224,2.956504133750914e-19
28600.0,1.118848934179498e-16,7999.985802470021,0.010000000000000002,0.0005000000000000001,3.533258019378044e-11,0.011004261207872864,0.9889957267134597,1.2043334867190073e-08,1.010350167012819e-15,7.673156822170966e-06,0.9999923268431767,3.0784621559991064e-19
28850.0,1.0012014098614752e-16,7981.281940436612,0.010000000000000002,0.0005000000000000001,3.218541112321448e-11,0.010717490881336361,0.9892824974168566,1.1669621807724791e-08,8.978528935587023e-16,7.328463400850736e-06,0.9999926715365983,2.8097110317419083e-19
29100.0,8.959245814929566e-17,7975.622916613247,0.010000000000000002,0.0005000000000000001,2.7932178299043066e-11,0.010112130385567604,0.9898878574282461,1.2158254018273193e-08,7.716165641456692e-16,6.8427411996664445e-06,0.9999931572587997,2.872646634926147e-19
29350.0,8.01717664215421e-17,7952.413955899516,0.010000000000000002,0.0005000000000000001,2.5829748001303575e-11,0.009946184847377337,0.9900538036302908,1.1496502102904822e-08,6.924292506239044e-16,6.579925685477903e-06,0.9999934200743139,2.521385291100747e-19
29600.0,7.174166513479958e-17,7933.950144164405,0.010000000000000002,0.0005000000000000001,2.3425397231595862e-11,0.009659117570438903,0.9903408712329562,1.117317949193827e-08,6.127344063954444e-16,6.268812411058368e-06,0.9999937311875883,2.308358666717896e-19
29850.0,6.41979932093744e-17,7913.430136389285,0.010000000000000002,0.0005000000000000001,2.14321896100271e-11,0.009434453706676853,0.9905655355491215,1.072276941664593e-08,5.456186783441288e-16,5.997356587508254e-06,0.9999940026434119,2.072566754018238e-19
30100.0,5.744754215513362e-17,7907.608206871315,0.010000000000000002,0.0005000000000000001,1.8515266163216563e-11,0.008874947481149644,0.9911250413045066,1.119582850590192e-08,4.667027540748299e-16,5.584824282771656e-06,0.9999944151757169,2.1219348911614118e-19
30350.0,5.140690440124152e-17,7883.923830927183,0.010000000000000002,0.0005000000000000001,1.7071382559330407e-11,0.008712698728892947,0.9912872906756882,1.0578347467561206e-08,4.1727876301607515e-16,5.360012920420557e-06,0.9999946399870792,1.85585172512347e-19
30600.0,4.600144272459923e-17,7868.714099076409,0.010000000000000002,0.0005000000000000001,1.5312835773581194e-11,0.008400384740888616,0.9915996047908822,1.0452916385843524e-08,3.6648199993329464e-16,5.080510238689679e-06,0.999994919489761,1.744117416381149e-19
30850.0,4.1164368043400064e-17,7864.863916167641,0.010000000000000002,0.0005000000000000001,1.3175935407438557e-11,0.00788130050285025,0.992118688475977,1.1007996941519453e-08,3.128677121615007e-16,4.723435172650844e-06,0.999995276564827,1.812340435205668e-19
31100.0,3.6835914181151484e-17,7845.8465079926345,0.010000000000000002,0.0005000000000000001,1.1973142653167759e-11,0.0076637863889128695,0.992336202948593,1.0650520978570616e-08,2.7711918353415425e-16,4.503600825897302e-06,0.9999954963991738,1.6467376002913438e-19
31350.0,3.296259940467392e-17,7833.419103230012,0.010000000000000002,0.0005000000000000001,1.0575647013220632e-11,0.007314851689347322,0.9926851375772536,1.0722823382300685e-08,2.4046580472844164e-16,4.236067071208093e-06,0.9999957639329285,1.590543511126209e-19
31600.0,2.949656561174687e-17,7829.8029832219345,0.010000000000000002,0.0005000000000000001,9.045844215821323e-12,0.00683606183267635,0.9931639268147682,1.1343509586782353e-08,2.0415142029003395e-16,3.925419703025878e-06,0.9999960745802967,1.661461597910304e-19
31850.0,2.6394987003504284e-17,7818.023511462268,0.010000000000000002,0.0005000000000000001,7.981962582308625e-12,0.0065204057712209326,0.9934795827716648,1.1449132327173766e-08,1.770810870733254e-16,3.69083670385832e-06,0.9999963091632961,1.6120124938413546e-19
32100.0,2.3619540935223472e-17,7806.810991880473,0.010000000000000002,0.0005000000000000001,7.0204707146167846e-12,0.0062061403802620265,0.9937938480124042,1.1600313334959229e-08,1.5320868960916633e-16,3.464650720071471e-06,0.9999965353492798,1.5728516069208856e-19
