velocity,density,temperature,si,ca,si0,si1,si2,si3,ca0,ca1,ca2,ca3
13387.5,9.817964388351419e-14,12906.946287506835,0.5,0.0,1.453347509859625e-13,3.423435940414701e-05,0.9544799774308945,0.04548576892272935,,,,
13612.5,8.785600528632412e-14,12406.905752937002,0.5,0.0,3.742746302669857e-13,6.796065810920323e-05,0.9866969021582213,0.013235136155890538,,,,
13862.5,7.861790244450754e-14,11424.516425744285,0.5,0.0,2.2105380322630623e-12,0.00023214405785659036,0.9987530246393939,0.0010148312982258502,,,,
14112.5,7.035119073113851e-14,10665.924151333329,0.04113110539845759,0.0005141388174807199,1.0597951491309381e-11,0.00067920155658719,0.9992192610408944,0.00010153739191060141,4.725844810703607e-15,3.656290510026755e-06,0.9999963437080027,1.4823989637779264e-12
14362.5,6.295372788383007e-14,10628.041390400334,0.04113110539845759,0.0005141388174807199,1.1964638354362612e-11,0.0007603676335194181,0.9991549017455538,8.473060895550363e-05,5.1386717794825215e-15,3.962842089932741e-06,0.9999960371567502,1.154657451643696e-12
14612.5,5.633411195010759e-14,10526.310128235058,0.04113110539845759,0.0005141388174807199,1.4991761665044204e-11,0.0009125397183313569,0.9990285793895173,5.8880877156872715e-05,5.8865653528482665e-15,4.469747777166602e-06,0.9999955302515503,6.665971775417692e-13
14862.5,5.04105519384562e-14,10453.290377367344,0.04113110539845759,0.0005141388174807199,1.762394570247848e-11,0.0010498721325881775,0.9989053248906263,4.480295915997611e-05,6.477585790988734e-15,4.899041041297756e-06,0.9999951009585094,4.42933134667945e-13
15112.5,4.5109857220975285e-14,10379.91267458796,0.04113110539845759,0.0005141388174807199,2.0344608702939127e-11,0.0011936926642811371,0.9987718940920469,3.4413223326642495e-05,6.998536276456817e-15,5.308875173284418e-06,0.9999946911245234,2.9637075374913166e-13
15362.5,4.0366533200848204e-14,10285.685226228956,0.04113110539845759,0.0005141388174807199,2.4853268164392165e-11,0.001408788184375379,0.9985667688893147,2.4442901456272995e-05,7.857276116311367e-15,5.903489703126217e-06,0.9999940965101132,1.7587262295968843e-13
15612.5,3.6121972070829574e-14,10198.637486535621,0.04113110539845759,0.0005141388174807199,2.907050710709577e-11,0.0016160618160629724,0.9983658853749666,1.80527798997951e-05,8.498135386007553e-15,6.410594914102404e-06,0.9999935894049677,1.0970939906814169e-13
15862.5,3.23237286638818e-14,10136.406852098698,0.04113110539845759,0.0005141388174807199,3.317120549153566e-11,0.0018231358334438836,0.9981626874174053,1.4176715979342703e-05,9.151174007440635e-15,6.916692493150032e-06,0.9999930833074214,7.619530844187562e-14
16112.5,2.892487244847865e-14,10055.064130232156,0.04113110539845759,0.0005141388174807199,3.7138536343379276e-11,0.0020324334574780005,0.9979567219717242,1.0844533659245585e-05,9.517617399607251e-15,7.327709209477934e-06,0.9999926722907315,4.9557225278346674e-14
16362.5,2.5883407661926743e-14,10015.416330095903,0.04113110539845759,0.0005141388174807199,3.949168769437277e-11,0.0021890630890323876,0.9978016407889024,9.296082573438567e-06,9.739390420590749e-15,7.639566568408507e-06,0.9999923604333827,3.919262632543874e-14
16612.5,2.316175441695767e-14,9883.27328704768,0.04113110539845759,0.0005141388174807199,5.0523632863070066e-11,0.0026639598188883135,0.997330183693007,5.856437581011996e-06,1.1054601380308846e-14,8.59027842411507e-06,0.999991409721546,1.88349353364909e-14
16862.5,2.0726284370221296e-14,9773.693702379747,0.04113110539845759,0.0005141388174807199,6.114453793025595e-11,0.0031252824709130248,0.9968707356411576,3.981826784899254e-06,1.2090940253176681e-14,9.416299347020753e-06,0.9999905837006308,1.0174320237915305e-14
17112.5,1.8546905215468798e-14,9728.072961283804,0.04113110539845759,0.0005141388174807199,6.627176946226562e-11,0.003408465947519018,0.9965882207523172,3.313233891959432e-06,1.2535580469804334e-14,9.897443073607553e-06,0.999990102556906,7.676931803741247e-15
17362.5,1.659668886748517e-14,9658.526530298303,0.04113110539845759,0.0005141388174807199,7.470522141712328e-11,0.0038152617938462755,0.9961821866279807,2.5515034678424556e-06,1.322413381115434e-14,1.0549917891350963e-05,0.9999894500820903,5.086825456957077e-15
17612.5,1.4851538742666926e-14,9541.353955190807,0.04113110539845759,0.0005141388174807199,9.059721495315991e-11,0.004482456763527735,0.9955158573985508,1.68574732435581e-06,1.4357636729517728e-14,1.1528506258122021e-05,0.9999884714937249,2.598143253665547e-15
17862.5,1.328989202521324e-14,9466.568601739067,0.04113110539845759,0.0005141388174807199,1.0340247056474163e-10,0.005058543294622993,0.9949401914545214,1.2651474530417075e-06,1.523933933666402e-14,1.234387981658114e-05,0.9999876561201664,1.6485898289604068e-15
18112.5,1.1892453240175879e-14,9342.029035027334,0.04113110539845759,0.0005141388174807199,1.3328679144319862e-10,0.006184111961459889,0.9938151070064185,7.808988348301058e-07,1.7403853545275836e-14,1.392115289957884e-05,0.9999860788470822,7.654337070124598e-16
18362.5,1.0641955841435824e-14,9221.07665624526,0.04113110539845759,0.0005141388174807199,1.7447854060166224e-10,0.007635370143613606,0.9923641524590608,4.772228470167727e-07,2.0210497951290857e-14,1.5850077829218967e-05,0.9999841499221502,3.5225235403423405e-16
18612.5,9.522948868823592e-15,9036.140825608938,0.04113110539845759,0.0005141388174807199,2.707582334636057e-10,0.010539717416370914,0.9894600608761017,2.214367691464975e-07,2.6017117357353224e-14,1.941322504650046e-05,0.9999805867749273,1.0450530007248496e-16
18862.5,8.521606038349507e-15,8810.934385775941,0.04113110539845759,0.0005141388174807199,4.900364572199167e-10,0.016081731748761183,0.9839181858168042,8.194439821012043e-08,3.721744435422728e-14,2.5531278087687033e-05,0.9999744687218751,2.1911539014807724e-17
19112.5,7.625554906691999e-15,8560.936958598637,0.010000000000000002,0.0005000000000000001,1.0077876120473804e-09,0.026516512435995503,0.9734834613269374,2.5229279451320112e-08,5.837614971980516e-14,3.560689435557391e-05,0.999964393105586,3.48112170511781e-18
19362.5,6.82372399912506e-15,8540.740861376746,0.010000000000000002,0.0005000000000000001,9.81131592262173e-10,0.026957227746917858,0.9730427478197973,2.3452153291109e-08,5.564444910693869e-14,3.543215801520535e-05,0.9999645678419291,3.0599447458561386e-18
19612.5,6.1062060120205104e-15,8511.693513919785,0.010000000000000002,0.0005000000000000001,9.695921504190311e-10,0.027676817233488422,0.972323160741164,2.1055755447753645e-08,5.3280060927898116e-14,3.542040163502792e-05,0.9999645795983116,2.5345355200004026e-18
19862.5,5.464135399675648e-15,8485.50493684224,0.010000000000000002,0.0005000000000000001,9.59297323072281e-10,0.028435887772505865,0.9715640922420684,1.9026128479203267e-08,5.124294770670814e-14,3.547810742709446e-05,0.9999645218925216,2.12880370896471e-18
20112.5,4.8895788329468825e-15,8456.895903744946,0.010000000000000002,0.0005000000000000001,9.534787112490487e-10,0.029304272599386994,0.9706957094323583,1.7014776135355725e-08,4.9361293788107895e-14,3.558792510552401e-05,0.9999644120748451,1.756898385363527e-18
20362.5,4.375437176212979e-15,8442.109343329115,0.010000000000000002,0.0005000000000000001,8.99792012572109e-10,0.029198065381264408,0.9708019173398987,1.637904483566432e-08,4.582356672265282e-14,3.4829184701689945e-05,0.9999651708152525,1.6209890953288261e-18
20612.5,3.915357771509436e-15,8414.892045449387,0.010000000000000002,0.0005000000000000001,8.803146317003688e-10,0.02978462247530145,0.9702153617914874,1.4852896509062456e-08,4.348324162752583e-14,3.462203687764015e-05,0.9999653779630789,1.3604911512834158e-18
20862.5,3.5036559460300107e-15,8395.030061336185,0.010000000000000002,0.0005000000000000001,8.412803358124591e-10,0.029922791175474084,0.9700771940159165,1.3967329020025016e-08,4.0627820425072525e-14,3.4050502857575154e-05,0.9999659494971018,1.2082727450280229e-18
21112.5,3.135244773153636e-15,8367.981226141217,0.010000000000000002,0.0005000000000000001,8.094009299450593e-10,0.0301962245593648,0.969803761822722,1.2808512344952987e-08,3.7888784752631964e-14,3.3506143735107496e-05,0.999966493856227,1.024847525959895e-18
21362.5,2.8055722191345024e-15,8336.849838057311,0.010000000000000002,0.0005000000000000001,7.857133829180356e-10,0.030650671333522565,0.9693493163475866,1.1533177420687529e-08,3.5478425948669064e-14,3.308000612870493e-05,0.9999669199938357,8.431810343093751e-19
21612.5,2.5105648988489894e-15,8336.48701047791,0.010000000000000002,0.0005000000000000001,6.996781487757046e-10,0.029411907884448227,0.9705880793901406,1.2025733069321824e-08,3.154617199492371e-14,3.1468716568575016e-05,0.9999685312834,8.768509084316866e-19
21862.5,2.246577745653984e-15,8342.285737543056,0.010000000000000002,0.0005000000000000001,6.04828696942464e-10,0.027683452568193184,0.9723165338035719,1.302340628403015e-08,2.7405312351115134e-14,2.9492066967470348e-05,0.999970507933005,9.637566585491725e-19
22112.5,2.0103489734846856e-15,8312.396991116613,0.010000000000000002,0.0005000000000000001,5.883374169605987e-10,0.028138402218136172,0.9718615854483744,1.1745152013831455e-08,2.5743443864083375e-14,2.9162914703119485e-05,0.9999708370852711,7.96608591277477e-19
22362.5,1.7989597747103243e-15,8277.18917984272,0.010000000000000002,0.0005000000000000001,5.792443496353261e-10,0.028827363861074637,0.9711726252211338,1.0338547178841488e-08,2.4323294219332195e-14,2.8971261696705807e-05,0.9999710287382789,6.324187833196226e-19
22612.5,1.609798255780531e-15,8248.1582594273,0.010000000000000002,0.0005000000000000001,5.524658973291714e-10,0.028930327203208532,0.9710696627816777,9.46264785944244e-09,2.2408646123614005e-14,2.8321392905108302e-05,0.9999716786070725,5.309858005835948e-19
22862.5,1.4405271650564395e-15,8218.669094683777,0.010000000000000002,0.0005000000000000001,5.35274239951809e-10,0.02933103535896502,0.9706689555556106,8.550150243260987e-09,2.096113174739233e-14,2.7936643002134086e-05,0.9999720633569769,4.39361049188291e-19
23112.5,1.2890550140765279e-15,8222.72190946729,0.010000000000000002,0.0005000000000000001,4.5977044420148013e-10,0.027495343495301472,0.972504646788012,9.256916262951763e-09,1.8048083177660933e-14,2.6055364773416883e-05,0.9999739446352085,4.804502613143234e-19
23362.5,1.1535102354357457e-15,8208.722903189828,0.010000000000000002,0.0005000000000000001,4.209422775250681e-10,0.026867870532029197,0.9731321199503447,9.096683883910553e-09,1.6229038611661835e-14,2.5027545472382337e-05,0.9999749724545114,4.5228605146675705e-19
23612.5,1.0322180579765649e-15,8202.963275065134,0.010000000000000002,0.0005000000000000001,3.72453460931452e-10,0.02567740644464066,0.974322583808758,9.374147929671117e-09,1.4232790596857556e-14,2.3647203615706306e-05,0.9999763527963701,4.573901058595887e-19
23862.5,9.236798135652637e-16,8168.633551842468,0.010000000000000002,0.0005000000000000001,3.6086047236632484e-10,0.026035742939296613,0.9739642483566545,8.34318851648608e-09,1.3231905719785971e-14,2.3269660722446038e-05,0.9999767303392643,3.670066746138575e-19
24112.5,8.265544197709907e-16,8171.765169127849,0.010000000000000002,0.0005000000000000001,3.084109158579066e-10,0.024326192265946827,0.9756737983886237,9.03701868707497e-09,1.1320512002002476e-14,2.1626491879417205e-05,0.9999783735081094,4.0051276846085255e-19
24362.5,7.396418096504039e-16,8172.36746133951,0.010000000000000002,0.0005000000000000001,2.6671423738474423e-10,0.02290354659644596,0.9770964435016108,9.635228944397024e-09,9.771390503139257e-15,2.0215365477117952e-05,0.9999797846345131,4.270607654772909e-19
24612.5,6.618681038987115e-16,8162.044851979012,0.010000000000000002,0.0005000000000000001,2.3998537638024633e-10,0.0221288460594371,0.9778711440213832,9.679194243682006e-09,8.666755627099762e-15,1.9247093340368214e-05,0.9999807529066509,4.1532104569883783e-19
24862.5,5.92272342156443e-16,8149.2076807656695,0.010000000000000002,0.0005000000000000001,2.1596621183080725e-10,0.02138286246877868,0.9786171276658382,9.6494167878606e-09,7.665802313423259e-15,1.8306470360043592e-05,0.9999816935296323,3.977650461446717e-19
25112.5,5.299946095259515e-16,8134.76489816008,0.010000000000000002,0.0005000000000000001,1.954655289620777e-10,0.020739231576368783,0.9792607586932239,9.534941766153546e-09,6.80639139895187e-15,1.7457274494150682e-05,0.999982542725499,3.7573625210880597e-19
25362.5,4.742654115906186e-16,8104.209374673606,0.010000000000000002,0.0005000000000000001,1.8637239286551103e-10,0.020811437966928505,0.9791885531831944,8.663504638476156e-09,6.250338618532428e-15,1.7042114906477187e-05,0.9999829578850873,3.107615719077309e-19
25612.5,4.2439616665611605e-16,8092.320055383672,0.010000000000000002,0.0005000000000000001,1.6774849164862577e-10,0.020111952343800588,0.9798880388337902,8.65466075367343e-09,5.533839433606825e-15,1.621530476111871e-05,0.9999837846952334,2.9895798960756805e-19
25862.5,3.7977069773723515e-16,8088.740014591888,0.010000000000000002,0.0005000000000000001,1.4606901170375552e-10,0.019020210426773845,0.9809797803613656,9.065791608573578e-09,4.7850013932712145e-15,1.5187626402327209e-05,0.9999848123735928,3.0928215333905e-19
26112.5,3.3983761916655283e-16,8106.397427341023,0.010000000000000002,0.0005000000000000001,1.181481184471136e-10,0.01714051541711651,0.9828594738247379,1.0639997462023088e-08,3.9371834091441064e-15,1.3750389771766983e-05,0.9999862496102243,3.8247880888185886e-19
26362.5,3.041035237550076e-16,8082.5575319469635,0.010000000000000002,0.0005000000000000001,1.1001318049494908e-10,0.016936095794987182,0.9830638940761732,1.001882649874746e-08,3.557142402763472e-15,1.3275916597410188e-05,0.9999867240833991,3.3441966590241957e-19
26612.5,2.7212688632593404e-16,8063.918517676964,0.010000000000000002,0.0005000000000000001,1.0047494646071263e-10,0.0165237526055577,0.9834762375878605,9.706106835896517e-09,3.170661924196346e-15,1.2701914427017585e-05,0.9999872980855699,3.0555243861290964e-19
26862.5,2.435126082955436e-16,8054.243812805099,0.010000000000000002,0.0005000000000000001,8.874276619034153e-11,0.015772299148041614,0.984227690881755,9.881460693216534e-09,2.7612425208378514e-15,1.196378967605751e-05,0.9999880362103212,3.015259411763704e-19
27112.5,2.1790713589349504e-16,8025.0776563222535,0.010000000000000002,0.0005000000000000001,8.367432620217089e-11,0.01571296704476481,0.9842870238026747,9.068886099154451e-09,2.5102531997718274e-15,1.160837914057809e-05,0.9999883916208568,2.525021719913884e-19
27362.5,1.9499409170500421e-16,8017.502052906275,0.010000000000000002,0.0005000000000000001,7.33848281219369e-11,0.014929249744593103,0.9850707408487693,9.33325261739055e-09,2.1757615229637763e-15,1.0898288026507324e-05,0.9999891017119713,2.5347599507649733e-19
27612.5,1.744903655584904e-16,8017.173615484626,0.010000000000000002,0.0005000000000000001,6.249036352033297e-11,0.013913338710784777,0.9860866512092412,1.0017483587912307e-08,1.8464949765477956e-15,1.0089056614844145e-05,0.9999899109433834,2.714296463065181e-19
27862.5,1.5614261645833403e-16,8003.940679639058,0.010000000000000002,0.0005000000000000001,5.5942366465676724e-11,0.013397905069008745,0.9866020848844134,9.990635518478285e-09,1.6228466813769657e-15,9.56195851469347e-06,0.9999904380414837,2.5943286460608415e-19
28112.5,1.3972414234115304e-16,7991.863542336206,0.010000000000000002,0.0005000000000000001,4.964013797631706e-11,0.012827038573070507,0.9871729513191825,1.0058106892110034e-08,1.4157938916667577e-15,9.020714169327312e-06,0.9999909792858293,2.511863605291918e-19
28362.5,1.2503207897877403e-16,7991.321051196928,0.010000000000000002,0.0005000000000000001,4.221662998490982e-11,0.011943648422998268,0.9880563407399632,1.07948219155739e-08,1.199651968742534e-15,8.343609091259705e-06,0.9999916563909075,2.6881403056500185e-19
28612.5,1.118848934179498e-16,7988.226886720639,0.010000000000000002,0.0005000000000000001,3.640854143498775e-11,0.011222970438252952,0.988777018139677,1.1385661582561482e-08,1.0275875329030859e-15,7.770925709126241e-06,0.9999922290742898,2.8047825953196554e-19
28862.5,1.0012014098614752e-16,7969.606860660662,0.010000000000000002,0.0005000000000000001,3.3054625566636335e-11,0.010906660993048864,0.9890933279152333,1.105866334302514e-08,9.102767736310233e-16,7.4080812994758626e-06,0.9999925919186995,2.566226432312142e-19
29112.5,8.959245814929566e-17,7934.479319193182,0.010000000000000002,0.0005000000000000001,3.1983316247881664e-11,0.011050777087567324,0.98894921310755,9.772899203004165e-09,8.429192627838703e-16,7.276079162160953e-06,0.9999927239208369,2.0265242308755214e-19
29362.5,8.01717664215421e-17,7921.67037018293,0.010000000000000002,0.0005000000000000001,2.8390967564431923e-11,0.010582296584995607,0.9894176935806335,9.805979993026178e-09,7.349079310821108e-16,6.863054198520977e-06,0.9999931369458006,1.949851872057192e-19
29612.5,7.174166513479958e-17,7909.015178432362,0.010000000000000002,0.0005000000000000001,2.5255587804410483e-11,0.0101476514357099,0.9898523387110006,9.828033848439405e-09,6.421201924221211e-16,6.481418539788713e-06,0.9999935185814596,1.8746813882848753e-19
29862.5,6.41979932093744e-17,7893.455208578446,0.010000000000000002,0.0005000000000000001,2.269784716606071e-11,0.009796399195962,0.9902035910892393,9.692100750377538e-09,5.64883231588793e-16,6.1497631481677774e-06,0.9999938502368513,1.756771199510125e-19
30112.5,5.744754215513362e-17,7893.931318401139,0.010000000000000002,0.0005000000000000001,1.9176630427149566e-11,0.009081887105558168,0.9909181023980819,1.047718337403633e-08,4.760234744047914e-16,5.6684828488093735e-06,0.9999943315171508,1.9001745621491675e-19
30362.5,5.140690440124152e-17,7875.750144959812,0.010000000000000002,0.0005000000000000001,1.738267080427433e-11,0.008816818753274403,0.9911831710434343,1.0185908568281968e-08,4.2105273808266963e-16,5.399057899968395e-06,0.9999946009420996,1.7403257600711852e-19
30612.5,4.600144272459923e-17,7857.762113551221,0.010000000000000002,0.0005000000000000001,1.569692468529464e-11,0.008538316392300401,0.9914616736605018,9.931500893820217e-09,3.7112337736560175e-16,5.131780675784873e-06,0.9999948682193239,1.5991324541655973e-19
30862.5,4.1164368043400064e-17,7844.754837582935,0.010000000000000002,0.0005000000000000001,1.396724528487064e-11,0.008188985923266378,0.9918110041298768,9.932889655675303e-09,3.241509024084603e-16,4.846033965689531e-06,0.999995153966034,1.5315944353012948e-19
31112.5,3.6835914181151484e-17,7839.760861906291,0.010000000000000002,0.0005000000000000001,1.2022379475995307e-11,0.007684822153813964,0.9923151674149613,1.0419202473805098e-08,2.7650365583451055e-16,4.504616391869929e-06,0.9999954953836079,1.5792241974467985e-19
31362.5,3.296259940467392e-17,7821.37163915186,0.010000000000000002,0.0005000000000000001,1.0887015394532769e-11,0.007455761744435917,0.9925442281239268,1.012075022170597e-08,2.4423256177789907e-16,4.287499034864847e-06,0.999995712500965,1.4430137902812252e-19
31612.5,2.949656561174687e-17,7805.823100879883,0.010000000000000002,0.0005000000000000001,9.744264154950566e-12,0.007178272990861886,0.9928217170032108,9.996183129482354e-09,2.139327085278516e-16,4.058223875073562e-06,0.9999959417761247,1.3529908725253312e-19
31862.5,2.6394987003504284e-17,7800.559374450168,0.010000000000000002,0.0005000000000000001,8.380542321356148e-12,0.0067326235241590955,0.9932673659879606,1.0479499766360781e-08,1.8227641158612257e-16,3.770062384006256e-06,0.9999962299376158,1.3928709892187977e-19
32112.5,2.3619540935223472e-17,7786.004126858458,0.010000000000000002,0.0005000000000000001,7.478378034547173e-12,0.006469237018192511,0.9935307525730476,1.0401281507066257e-08,1.593520235720092e-16,3.5635796165426316e-06,0.9999964364203833,1.3163925464370147e-19
32362.5,2.1135934407417285e-17,7771.623091961187,0.010000000000000002,0.0005000000000000001,6.66281942328436e-12,0.006209735811330167,0.9937902538435739,1.0338433060152361e-08,1.3911880836887487e-16,3.3655982422233645e-06,0.9999966344017576,1.2464077461720594e-19
