velocity,density,temperature,si,ca,si0,si1,si2,si3,ca0,ca1,ca2,ca3
13387.5,9.817964388351419e-14,12881.5494214394,0.5,0.0,1.479997758996671e-13,3.4701111401789695e-05,0.9562408879491684,0.04372439351441888,,,,
13612.5,8.785600528632412e-14,12387.962605082219,0.5,0.0,3.807069418735611e-13,6.87760609180256e-05,0.9871514603174101,0.012779762679659685,,,,
13862.5,7.861790244450754e-14,11416.75060857894,0.5,0.0,2.2533973451037614e-12,0.0002351240394747057,0.9987745781033988,0.0009902978526884346,,,,
14112.5,7.035119073113851e-14,10712.993104060668,0.050890585241730284,0.0005089058524173028,9.922944288883899e-12,0.0006496740106170149,0.9992352043541239,0.00011512162532265311,4.5957046868731495e-15,3.571426625145543e-06,0.9999964285715431,1.8270268801405292e-12
14362.5,6.295372788383007e-14,10616.163425407438,0.050890585241730284,0.0005089058524173028,1.2302599355154151e-11,0.0007742789422931386,0.9991442259400976,8.149510530052858e-05,5.232262465434813e-15,4.012117076462294e-06,0.9999959878818312,1.0871020533561392e-12
14612.5,5.633411195010759e-14,10591.56399413516,0.050890585241730284,0.0005089058524173028,1.318169323748053e-11,0.000837634870176437,0.9990903617800474,7.200333658988398e-05,5.4617034734029335e-15,4.232773607011144e-06,0.9999957672254696,9.178234441321792e-13
14862.5,5.04105519384562e-14,10543.565171030557,0.050890585241730284,0.0005089058524173028,1.4644104237676217e-11,0.0009283772449707096,0.9990120611015726,5.9561638809560345e-05,5.7999435598887236e-15,4.525131285122638e-06,0.999995474868014,6.95139531788294e-13
15112.5,4.5109857220975285e-14,10450.883873972447,0.050890585241730284,0.0005089058524173028,1.7915941531201942e-11,0.0010967619293753537,0.998860625328112,4.261272459530644e-05,6.536267894117748e-15,5.043578618434782e-06,0.999994956420956,4.1894628898045496e-13
15362.5,4.0366533200848204e-14,10388.326065463574,0.050890585241730284,0.0005089058524173028,2.035596724990402e-11,0.001233937180644964,0.9987323304277781,3.373237122009011e-05,7.013082971139868e-15,5.432897714646025e-06,0.9999945671019835,2.9479501389541655e-13
15612.5,3.6121972070829574e-14,10325.12372701473,0.050890585241730284,0.0005089058524173028,2.277975726120437e-11,0.0013746668465695012,0.9985984327363805,2.6900394269822604e-05,7.408640505717227e-15,5.7965617694613765e-06,0.9999942034380147,2.084412459181274e-13
15862.5,3.23237286638818e-14,10248.967973639954,0.050890585241730284,0.0005089058524173028,2.6418788086317892e-11,0.0015678829907015304,0.9984116995713542,2.0417411525147182e-05,8.019723088360264e-15,6.285936061239297e-06,0.9999937140637942,1.3662068431977867e-13
16112.5,2.892487244847865e-14,10129.773937790584,0.050890585241730284,0.0005089058524173028,3.2104562013137077e-11,0.001845164449032224,0.9981410288806971,1.380663816608048e-05,8.774472635963766e-15,6.90155723218104e-06,0.9999930984426859,7.317783505928286e-14
16362.5,2.5883407661926743e-14,10028.819362682927,0.050890585241730284,0.0005089058524173028,3.932162327498487e-11,0.002181644773972722,0.9978087809708324,9.574215873301543e-06,9.806997643698114e-15,7.654473565966306e-06,0.9999923455263828,4.1465314776875076e-14
16612.5,2.316175441695767e-14,9906.734372931274,0.050890585241730284,0.0005089058524173028,4.8768174227265633e-11,0.0026014013185205057,0.9973923115662997,6.287066411570551e-06,1.0892624337887215e-14,8.482903820261505e-06,0.9999915170961476,2.1222106960245954e-14
16862.5,2.0726284370221296e-14,9823.547622457305,0.050890585241730284,0.0005089058524173028,5.5796926512443695e-11,0.002940948200251862,0.9970543636271603,4.6881167908618986e-06,1.1537735409086289e-14,9.08441723906211e-06,0.9999909155827361,1.3303182207331289e-14
17112.5,1.8546905215468798e-14,9775.879377218364,0.050890585241730284,0.0005089058524173028,5.992442181476314e-11,0.0031885768410228844,0.9968075112041686,3.911894884134755e-06,1.1833985208496137e-14,9.490497573144744e-06,0.999990509502405,1.0032371186114507e-14
17362.5,1.659668886748517e-14,9698.965704008137,0.050890585241730284,0.0005089058524173028,6.857101373297454e-11,0.0036046792535496712,0.9963923793465332,2.9413313459031885e-06,1.2592850033550396e-14,1.0179705520778847e-05,0.9999898202944602,6.3978513621930224e-15
17612.5,1.4851538742666926e-14,9571.736945949235,0.050890585241730284,0.0005089058524173028,8.785144625227327e-11,0.004389874584996555,0.9956082877874455,1.8375397064968126e-06,1.4316289434632248e-14,1.144884770818032e-05,0.9999885511522745,3.0285150925901773e-15
17862.5,1.328989202521324e-14,9455.63694098622,0.050890585241730284,0.0005089058524173028,1.0985533289981348e-10,0.005261139805829778,0.9947376734580243,1.1866262905141334e-06,1.6019032150936977e-14,1.2735086117804671e-05,0.9999872649138646,1.5085905712207138e-15
18112.5,1.1892453240175879e-14,9345.227565634703,0.050890585241730284,0.0005089058524173028,1.3534836467042013e-10,0.006243949630072736,0.9937552714725577,7.787620211050003e-07,1.7725649878238838e-14,1.4062193536812768e-05,0.9999859378064447,7.689935040852724e-16
18362.5,1.0641955841435824e-14,9231.30405890642,0.050890585241730284,0.0005089058524173028,1.7641953329629773e-10,0.007686859302334092,0.9923126553484779,4.851727684354869e-07,2.0640421111511555e-14,1.6015446521013376e-05,0.9999839845534579,3.6690113653257555e-16
18612.5,9.522948868823592e-15,9055.182127661184,0.050890585241730284,0.0005089058524173028,2.6281682612349015e-10,0.010331473148009916,0.9896682900144396,2.3657473356794888e-07,2.575294127554842e-14,1.9223897800066765e-05,0.999980776102174,1.1700425957944477e-16
18862.5,8.521606038349507e-15,8838.978994294337,0.050890585241730284,0.0005089058524173028,4.642734647173956e-10,0.015516225480391133,0.9844836827760556,9.12792799170734e-08,3.6344633259123546e-14,2.5031337218899294e-05,0.9999749686627447,2.6237871641125292e-17
19112.5,7.625554906691999e-15,8642.255281403483,0.010000000000000002,0.0005000000000000001,8.103437812882391e-10,0.02299600786633357,0.9770039549148056,3.640851712806512e-08,5.139641770304122e-14,3.2474278583053945e-05,0.9999675257213656,6.2542063572310776e-18
19362.5,6.82372399912506e-15,8623.062220102809,0.010000000000000002,0.0005000000000000001,7.854530487127331e-10,0.02331236815847994,0.9766875969836315,3.407243561542542e-08,4.8820531826410065e-14,3.224217992390174e-05,0.9999677578200273,5.554777951000114e-18
19612.5,6.1062060120205104e-15,8531.880117281375,0.010000000000000002,0.0005000000000000001,9.35430804405582e-10,0.027033178205907726,0.9729667980582761,2.280038528774634e-08,5.2610959820807936e-14,3.5003613191802304e-05,0.9999649963867556,2.9014647783412515e-18
19862.5,5.464135399675648e-15,8514.903758289078,0.010000000000000002,0.0005000000000000001,8.917376431600246e-10,0.027111751157276997,0.972888226268276,2.168270939543768e-08,4.923971257802638e-14,3.443721604428677e-05,0.9999655627839065,2.630859157589335e-18
20112.5,4.8895788329468825e-15,8481.258773219124,0.010000000000000002,0.0005000000000000001,8.904737549231003e-10,0.028026910366888827,0.9719730696678959,1.907474156436834e-08,4.7374744386074064e-14,3.4557379954602863e-05,0.999965442619998,2.1071436159028493e-18
20362.5,4.375437176212979e-15,8458.907711566408,0.010000000000000002,0.0005000000000000001,8.640224191906469e-10,0.028435053038921347,0.9715649284521938,1.7644862450363612e-08,4.484450002414767e-14,3.4264733225611e-05,0.9999657352667295,1.8300156419073663e-18
20612.5,3.915357771509436e-15,8456.836584823413,0.010000000000000002,0.0005000000000000001,7.836467534410033e-10,0.02760953949129974,0.9723904416443078,1.808074568380743e-08,4.056583157684763e-14,3.293826118886209e-05,0.9999670617387706,1.861981491494585e-18
20862.5,3.5036559460300107e-15,8422.606079011712,0.010000000000000002,0.0005000000000000001,7.760817547643133e-10,0.028390798666324768,0.9716091846079075,1.5949685982493936e-08,3.8650060973060873e-14,3.28702339112985e-05,0.9999671297660501,1.490828588026571e-18
21112.5,3.135244773153636e-15,8388.562868843892,0.010000000000000002,0.0005000000000000001,7.649364805590568e-10,0.029104516411650926,0.970895468711252,1.4112160519163683e-08,3.664491405901926e-14,3.2708396011729146e-05,0.9999672916039516,1.1968866355752196e-18
21362.5,2.8055722191345024e-15,8370.289804430051,0.010000000000000002,0.0005000000000000001,7.118335803675753e-10,0.028741308223187084,0.9712586774918959,1.357308356902287e-08,3.3370805264440054e-14,3.1679184944217214e-05,0.9999683208150224,1.0913144340057735e-18
21612.5,2.5105648988489894e-15,8346.858601140511,0.010000000000000002,0.0005000000000000001,6.796821208719452e-10,0.028861333027031952,0.9711386536581197,1.2635166179169677e-08,3.100375353383507e-14,3.107912397382037e-05,0.9999689208759953,9.489793610539528e-19
21862.5,2.246577745653984e-15,8329.760880102702,0.010000000000000002,0.0005000000000000001,6.304832242316512e-10,0.02844256002227168,0.9715574271339883,1.2213256837995553e-08,2.8172492168189775e-14,3.0055659164019625e-05,0.9999699443408079,8.720768685513274e-19
22112.5,2.0103489734846856e-15,8323.319331318724,0.010000000000000002,0.0005000000000000001,5.691153641471055e-10,0.02753588122215036,0.972464105811399,1.2397335335078392e-08,2.5208205829604664e-14,2.873665672841761e-05,0.9999712633432464,8.676208639392604e-19
22362.5,1.7989597747103243e-15,8313.923339050018,0.010000000000000002,0.0005000000000000001,5.186489653331737e-10,0.02682449152879677,0.9731754955571088,1.2395445416341612e-08,2.2693498019446933e-14,2.7591726407341495e-05,0.99997240827357,8.430544978503226e-19
22612.5,1.609798255780531e-15,8286.16196801375,0.010000000000000002,0.0005000000000000001,4.894100906960963e-10,0.02673405856391625,0.973265929466829,1.1479844610546986e-08,2.0716480966802696e-14,2.682002373508636e-05,0.9999731799762441,7.193395151031503e-19
22862.5,1.4405271650564395e-15,8294.484984272553,0.010000000000000002,0.0005000000000000001,4.174687511003697e-10,0.02494545931735238,0.9750545276298398,1.2635339194565628e-08,1.779892503608894e-14,2.4959125227371786e-05,0.9999750408747549,8.096577748646485e-19
23112.5,1.2890550140765279e-15,8301.505787244683,0.010000000000000002,0.0005000000000000001,3.5670796389365796e-10,0.02330171594306125,0.9766982698648526,1.3835378256655712e-08,1.5292722131805644e-14,2.3234864525184105e-05,0.9999767651354594,9.032387257124637e-19
23362.5,1.1535102354357457e-15,8266.32523981481,0.010000000000000002,0.0005000000000000001,3.492775054894825e-10,0.02378946045486341,0.9762105269715711,1.2224288066309516e-08,1.4365197103236548e-14,2.3003380430101778e-05,0.9999769966195555,7.195029337135961e-19
23612.5,1.0322180579765649e-15,8256.40828736443,0.010000000000000002,0.0005000000000000001,3.116312180312362e-10,0.022858682220104655,0.9771413050922942,1.2375969888027634e-08,1.264452912585668e-14,2.1801752574093074e-05,0.9999781982474133,7.064424828171534e-19
23862.5,9.236798135652637e-16,8235.241055108081,0.010000000000000002,0.0005000000000000001,2.913077028808903e-10,0.022641796367092584,0.9773581915971562,1.1744443413171993e-08,1.1514289463712475e-14,2.1130364129095605e-05,0.9999788696358595,6.291041638851536e-19
24112.5,8.265544197709907e-16,8229.790072412325,0.010000000000000002,0.0005000000000000001,2.573068745080988e-10,0.021612986624053657,0.9783870009941299,1.212450962430917e-08,1.0081983687887275e-14,1.9945077248331683e-05,0.9999800549227417,6.381085921083422e-19
24362.5,7.396418096504039e-16,8222.323901523287,0.010000000000000002,0.0005000000000000001,2.2904618356849564e-10,0.020735486178615207,0.9792645012160349,1.237630379867251e-08,8.8757363802382e-15,1.8894483099826513e-05,0.9999811055168912,6.362033637251315e-19
24612.5,6.618681038987115e-16,8198.57826885127,0.010000000000000002,0.0005000000000000001,2.1325934095109382e-10,0.020486644256616712,0.9795133438478525,1.1682271400801457e-08,8.025048269017695e-15,1.8247951876880824e-05,0.999981752048115,5.589003684857658e-19
24862.5,5.92272342156443e-16,8187.749991692381,0.010000000000000002,0.0005000000000000001,1.9084117462643717e-10,0.019723054415601814,0.9802769336308499,1.1762707123724377e-08,7.07470387307833e-15,1.7314225047285017e-05,0.9999826857749458,5.440871537093027e-19
25112.5,5.299946095259515e-16,8179.384045730725,0.010000000000000002,0.0005000000000000001,1.696864076449264e-10,0.01890817205668618,0.9810918157934805,1.1980146928769351e-08,6.213525336249462e-15,1.6383062944380796e-05,0.9999836169370494,5.396963426070984e-19
25362.5,4.742654115906186e-16,8163.139137233507,0.010000000000000002,0.0005000000000000001,1.542689128644514e-10,0.018392484506002574,0.9816075035983256,1.174140290172675e-08,5.530502006463254e-15,1.5651659449452805e-05,0.999984348340545,5.031156352486133e-19
25612.5,4.2439616665611605e-16,8152.6377624193865,0.010000000000000002,0.0005000000000000001,1.376585044393778e-10,0.01767378093054296,0.9823262070803087,1.1851489831207366e-08,4.862422372266344e-15,1.4826442282075245e-05,0.9999851735577131,4.913665839930426e-19
25862.5,3.7977069773723515e-16,8141.270800540365,0.010000000000000002,0.0005000000000000001,1.2308363046241047e-10,0.017005442228776754,0.982994545734058,1.191408165487369e-08,4.279213556166477e-15,1.4055586999938706e-05,0.9999859444129957,4.766704275979495e-19
26112.5,3.3983761916655283e-16,8121.54121911565,0.010000000000000002,0.0005000000000000001,1.1244661868880266e-10,0.01659473151796564,0.9834052568575468,1.151204081572739e-08,3.811920639820923e-15,1.3445734013395344e-05,0.9999865542659827,4.333000514724403e-19
26362.5,3.041035237550076e-16,8105.7713453394035,0.010000000000000002,0.0005000000000000001,1.0160503773353885e-10,0.01607769462899372,0.9839222939326491,1.1336752146022759e-08,3.373157030202472e-15,1.2800886302386998e-05,0.9999871991136943,4.061853766517164e-19
26612.5,2.7212688632593404e-16,8082.92400135252,0.010000000000000002,0.0005000000000000001,9.431768322123066e-11,0.015853881030732646,0.9841461081461639,1.072878570531584e-08,3.041485153227783e-15,1.2341891765411428e-05,0.9999876581082315,3.580279317826926e-19
26862.5,2.435126082955436e-16,8073.2154239791735,0.010000000000000002,0.0005000000000000001,8.338705067490378e-11,0.015142471025457387,0.9848575179761974,1.0914958267520596e-08,2.651255275233037e-15,1.1631075423980178e-05,0.9999883689245733,3.5308688613109727e-19
27112.5,2.1790713589349504e-16,8058.835547964741,0.010000000000000002,0.0005000000000000001,7.467585933200126e-11,0.014585112356860466,0.9854148767156787,1.085278483325393e-08,2.328571233351332e-15,1.1021716911652161e-05,0.9999889782830861,3.3544366746670404e-19
27362.5,1.9499409170500421e-16,8049.269392620556,0.010000000000000002,0.0005000000000000001,6.60773689240619e-11,0.013938089587265343,0.9860618993103913,1.1036265950083403e-08,2.0315747533241083e-15,1.0391926399208358e-05,0.9999896080735987,3.30776170024284e-19
27612.5,1.744903655584904e-16,8058.718932153883,0.010000000000000002,0.0005000000000000001,5.427833775381477e-11,0.012686583263827388,0.987313404182048,1.2499846204351243e-08,1.6818121775915248e-15,9.45982170151193e-06,0.9999905401782967,3.852616016099985e-19
27862.5,1.5614261645833403e-16,8038.232169191905,0.010000000000000002,0.0005000000000000001,4.9871582084341106e-11,0.012426375829795444,0.9875736121337263,1.1986606676346073e-08,1.50461156700895e-15,9.074379201926068e-06,0.9999909256207965,3.4635441541507084e-19
28112.5,1.3972414234115304e-16,8017.286437048609,0.010000000000000002,0.0005000000000000001,4.563830491418703e-11,0.012139664165056433,0.9878603242830108,1.1506294326956748e-08,1.3400541351532345e-15,8.683061959526588e-06,0.9999913169380391,3.111462124225621e-19
28362.5,1.2503207897877403e-16,8020.069571627844,0.010000000000000002,0.0005000000000000001,3.853307005861402e-11,0.011249663639022309,0.9887503237878849,1.2534559779685549e-08,1.1313520333859044e-15,8.007846210339444e-06,0.9999919921537885,3.4152968391495283e-19
28612.5,1.118848934179498e-16,8003.588671981306,0.010000000000000002,0.0005000000000000001,3.4716706938023095e-11,0.010878280965448928,0.9891217066773305,1.2322503906090329e-08,9.97020651248596e-16,7.607369231696639e-06,0.9999923926307673,3.18554297511228e-19
28862.5,1.0012014098614752e-16,7995.420890627724,0.010000000000000002,0.0005000000000000001,3.0286704686668137e-11,0.010299203465726926,0.989700783806785,1.2697201482640477e-08,8.5900341202869e-16,7.1179370735224704e-06,0.9999928820629256,3.1960564530698205e-19
29112.5,8.959245814929566e-17,7988.62728691387,0.010000000000000002,0.0005000000000000001,2.6387962189713274e-11,0.009742451712830703,0.9902575351124394,1.314834175858275e-08,7.401896320693506e-16,6.658213216121014e-06,0.9999933417867832,3.236458850803022e-19
29362.5,8.01717664215421e-17,7973.784765583539,0.010000000000000002,0.0005000000000000001,2.3652524532258497e-11,0.009388670579271745,0.9906113163663935,1.3030682298407466e-08,6.50116764202332e-16,6.31008144005471e-06,0.9999936899185592,3.0579044435959743e-19
29612.5,7.174166513479958e-17,7964.178910278358,0.010000000000000002,0.0005000000000000001,2.0733016838588372e-11,0.00891646424002237,0.9910835224188183,1.3320426343690523e-08,5.618227653768604e-16,5.916540902812305e-06,0.9999940834590967,3.029483113131797e-19
29862.5,6.41979932093744e-17,7957.094713542472,0.010000000000000002,0.0005000000000000001,1.801739662491986e-11,0.008420056780158688,0.9915799294004481,1.3801375841627907e-08,4.827083299591367e-16,5.525453458103719e-06,0.9999944745465414,3.066351060091868e-19
30112.5,5.744754215513362e-17,7934.1663384412595,0.010000000000000002,0.0005000000000000001,1.664691969258978e-11,0.00827720516650949,0.9917227817528342,1.3064009377039172e-08,4.3288355662848185e-16,5.310934480175155e-06,0.9999946890655194,2.6958273245575667e-19
30362.5,5.140690440124152e-17,7915.225022142893,0.010000000000000002,0.0005000000000000001,1.5138796848876825e-11,0.00805267957288155,0.9919473077622113,1.2649768396023933e-08,3.8384277206315194e-16,5.06649900182679e-06,0.9999949335009978,2.454651913850834e-19
30612.5,4.600144272459923e-17,7896.520803760583,0.010000000000000002,0.0005000000000000001,1.3699747686418772e-11,0.007809109810705184,0.9921908778805423,1.2295052792012836e-08,3.388136982182915e-16,4.820357353607959e-06,0.9999951796426461,2.2445917077485755e-19
30862.5,4.1164368043400064e-17,7885.77813402726,0.010000000000000002,0.0005000000000000001,1.2065748874096151e-11,0.0074393039637288445,0.9925606835495779,1.2474627461619858e-08,2.9372457774662896e-16,4.5294706051833415e-06,0.9999954705293945,2.197894260576887e-19
31112.5,3.6835914181151484e-17,7876.1327721485595,0.010000000000000002,0.0005000000000000001,1.0570908793226449e-11,0.007062592649017424,0.9929373945963836,1.2744027974037294e-08,2.536272932330054e-16,4.245182755395632e-06,0.9999957548172445,2.1745540470322235e-19
31362.5,3.296259940467392e-17,7876.715567548842,0.010000000000000002,0.0005000000000000001,8.881649637408301e-12,0.006523313464779165,0.9934766726989637,1.3827375469374231e-08,2.125755749664969e-16,3.900432569473011e-06,0.9999960995674303,2.362045165434251e-19
31612.5,2.949656561174687e-17,7858.0746338661165,0.010000000000000002,0.0005000000000000001,8.056153670103854e-12,0.0063356204663401,0.9936643661134172,1.3412186559032033e-08,1.8803251084920466e-16,3.7155673362587607e-06,0.9999962844326635,2.154771840318427e-19
31862.5,2.6394987003504284e-17,7845.065871853676,0.010000000000000002,0.0005000000000000001,7.137014905821345e-12,0.0060588185733834714,0.9939411679679034,1.345157597547535e-08,1.6352775260413768e-16,3.4998535674267068e-06,0.9999965001464325,2.0697226382056402e-19
32112.5,2.3619540935223472e-17,7824.014611426455,0.010000000000000002,0.0005000000000000001,6.5271487308571296e-12,0.005916391879978298,0.9940835952432785,1.2870216031505911e-08,1.4541651817704866e-16,3.3464294264669215e-06,0.9999966535705734,1.8468444444356778e-19
32362.5,2.1135934407417285e-17,7818.1172862129115,0.010000000000000002,0.0005000000000000001,5.622684388028551e-12,0.00555477098738532,0.99444521555723,1.3449762195610748e-08,1.2399809816675206e-16,3.1106964089522664e-06,0.9999968893035909,1.8915941134105948e-19
