velocity,density,temperature,si,ca,si0,si1,si2,si3,ca0,ca1,ca2,ca3
13662.5,8.785600528632412e-14,12170.012453225596,0.5,0.0,4.850122449371119e-13,8.128177663524302e-05,0.9916900477147835,0.008228670188752549,,,,
13837.5,7.861790244450754e-14,11416.244940937047,0.5,0.0,2.089994193736228e-12,0.00022386528588474373,0.9987362176750936,0.0010399170345227015,,,,
14087.5,7.035119073113851e-14,10701.038885522228,0.04113110539845759,0.0005141388174807199,9.64652974631121e-12,0.0006383035866200281,0.9992468648861166,0.00011483151760362713,4.429838370378288e-15,3.498376332955038e-06,0.9999965016218779,1.7846293703160596e-12
14337.5,6.295372788383007e-14,10627.102273775723,0.04113110539845759,0.0005141388174807199,1.1656479973391329e-11,0.0007476231088884756,0.999166322599248,8.605428020039437e-05,5.0058094982809665e-15,3.900576294714729e-06,0.9999960994225294,1.1708526878578573e-12
14587.5,5.633411195010759e-14,10568.536452283408,0.04113110539845759,0.0005141388174807199,1.3561563236592857e-11,0.0008540279984389274,0.9990781512677319,6.782072026369168e-05,5.516036982969436e-15,4.272285488524094e-06,0.9999957277136768,8.292579627660664e-13
14837.5,5.04105519384562e-14,10477.19120808344,0.04113110539845759,0.0005141388174807199,1.6558204643964504e-11,0.0010075525603493011,0.9989437002837579,4.874713933280135e-05,6.210136334457902e-15,4.759879883892721e-06,0.9999952401196063,5.037396799571331e-13
15087.5,4.5109857220975285e-14,10399.478147864633,0.04113110539845759,0.0005141388174807199,1.9250682175125387e-11,0.0011510211003633703,0.9988119834697988,3.6995410586212064e-05,6.7340047050721414e-15,5.172586652097429e-06,0.9999948274130106,3.3054164120586957e-13
15337.5,4.0366533200848204e-14,10297.383466955629,0.04113110539845759,0.0005141388174807199,2.3924104265281237e-11,0.0013739455866751628,0.9986004349745281,2.5619414872140375e-05,7.641124651106197e-15,5.795413437409301e-06,0.9999942045863665,1.8851621175642983e-13
15587.5,3.6121972070829574e-14,10253.142448969604,0.04113110539845759,0.0005141388174807199,2.63581240526141e-11,0.0015144301520670662,0.9984642196392249,2.1350182349729735e-05,8.069481840255666e-15,6.165770889036737e-06,0.9999938342289588,1.441716254444189e-13
15837.5,3.23237286638818e-14,10194.633193584092,0.04113110539845759,0.0005141388174807199,2.8868366125187055e-11,0.0016634745965958375,0.9983191548100437,1.737056449197953e-05,8.374242472103614e-15,6.502757134583633e-06,0.9999934972427523,1.0463869136097774e-13
16087.5,2.892487244847865e-14,10124.666065948619,0.04113110539845759,0.0005141388174807199,3.2056893669257655e-11,0.0018441397014825147,0.9981421794439462,1.3680822514286054e-05,8.725033974741518e-15,6.884656080212638e-06,0.9999931153438393,7.178734782598679e-14
16337.5,2.5883407661926743e-14,10016.23479685226,0.04113110539845759,0.0005141388174807199,4.010184248671491e-11,0.00221095439043381,0.99777982868348,9.216885984275933e-06,9.893741269999992e-15,7.710853722483155e-06,0.9999922891462287,3.8920346299064086e-14
16587.5,2.316175441695767e-14,9968.47071753261,0.04113110539845759,0.0005141388174807199,4.3619821058572757e-11,0.0024170857244136127,0.9975752603570058,7.65387496072611e-06,1.0280255010817414e-14,8.12066597724794e-06,0.9999918793339831,2.931171278097125e-14
16837.5,2.0726284370221296e-14,9886.729621595015,0.04113110539845759,0.0005141388174807199,4.967817090898521e-11,0.0027244184026094104,0.9972698280957983,5.7534519140546056e-06,1.086020054242293e-14,8.679656461852316e-06,0.9999913203435088,1.8617318872953772e-14
17087.5,1.8546905215468798e-14,9757.06004246182,0.04113110539845759,0.0005141388174807199,6.28924447135257e-11,0.0032925734660287686,0.9967037835855665,3.642885512095417e-06,1.2210143034250236e-14,9.699239197012644e-06,0.9999903007607819,8.977329234667243e-15
17337.5,1.659668886748517e-14,9673.104677263804,0.04113110539845759,0.0005141388174807199,7.299897216846623e-11,0.003757334319150961,0.9962399938683645,2.671739485537381e-06,1.3093490475138501e-14,1.0463302528230121e-05,0.9999895366974533,5.49682542087717e-15
17587.5,1.4851538742666926e-14,9599.000651989878,0.04113110539845759,0.0005141388174807199,8.215869892752801e-11,0.004201844174972442,0.9957961196059507,2.036136918090037e-06,1.3730383614470278e-14,1.11207926000638e-05,0.9999888792073827,3.562885787505959e-15
17837.5,1.328989202521324e-14,9455.597453576485,0.04113110539845759,0.0005141388174807199,1.0883808281015898e-10,0.0052309465119379575,0.9947678598444283,1.1935347956526306e-06,1.5871104491830247e-14,1.2667725164617224e-05,0.9999873322748181,1.5172457162322176e-15
18087.5,1.1892453240175879e-14,9347.150209257856,0.04113110539845759,0.0005141388174807199,1.3526539248409568e-10,0.006243068016674893,0.993756149635292,7.822127676071414e-07,1.7746908110906764e-14,1.4069854968033599e-05,0.9999859301450135,7.758280142075545e-16
18337.5,1.0641955841435824e-14,9222.084968979421,0.04113110539845759,0.0005141388174807199,1.7496626086754295e-10,0.007649098748891524,0.992350423632889,4.774432533856166e-07,2.0286930941326746e-14,1.58824639413471e-05,0.999984117536038,3.5325877372422655e-16
18587.5,9.522948868823592e-15,9038.410424631627,0.04113110539845759,0.0005141388174807199,2.8036559166924643e-10,0.010780645132021146,0.9892191370981459,2.1748946741001355e-07,2.700865108220706e-14,1.9836058498349554e-05,0.9999801639414745,1.0323023674104859e-16
18837.5,8.521606038349507e-15,8790.888651910158,0.04113110539845759,0.0005141388174807199,5.419872629763298e-10,0.01717319261891805,0.9828267341168783,7.272221647124483e-08,4.032004012351654e-14,2.686757273210851e-05,0.9999731324272275,1.8469859570361836e-17
19087.5,7.625554906691999e-15,8590.160905084029,0.010000000000000002,0.0005000000000000001,9.501028025241767e-10,0.025511654315755854,0.9744883163150206,2.8419120757187213e-08,5.690562103311554e-14,3.485583604602743e-05,0.999965144163897,4.24546182298632e-18
19337.5,6.82372399912506e-15,8556.445232589327,0.010000000000000002,0.0005000000000000001,9.643761854494715e-10,0.026651200836876398,0.9733487734380389,2.4760708459194827e-08,5.5710174947061637e-14,3.53341518336908e-05,0.9999646658481106,3.3731501677936886e-18
19587.5,6.1062060120205104e-15,8529.90845379957,0.010000000000000002,0.0005000000000000001,9.531553961712428e-10,0.02736392694422563,0.9726360497157471,2.23868717653664e-08,5.351104942622334e-14,3.5367332351505693e-05,0.999964632667595,2.8340962211829933e-18
19837.5,5.464135399675648e-15,8510.879666541023,0.010000000000000002,0.0005000000000000001,8.998495973239123e-10,0.027272735995640684,0.9727272417915549,2.1312954845785217e-08,4.946222981038959e-14,3.455858600645004e-05,0.9999654414139441,2.5575062704355312e-18
20087.5,4.8895788329468825e-15,8476.909393622973,0.010000000000000002,0.0005000000000000001,8.985235236628952e-10,0.028192384282339108,0.9718075960874244,1.873171296289931e-08,4.7567052551247266e-14,3.467256512872072e-05,0.9999653274348237,2.0444126711619846e-18
20337.5,4.375437176212979e-15,8445.40016952658,0.010000000000000002,0.0005000000000000001,8.887555588652638e-10,0.028964647426743057,0.9710353350138221,1.667067916119225e-08,4.5424928295520945e-14,3.462664966956018e-05,0.9999653733502851,1.6649663185323296e-18
20587.5,3.915357771509436e-15,8419.663641919176,0.010000000000000002,0.0005000000000000001,8.596512499301781e-10,0.0293288203880621,0.9706711634508854,1.5301401138015675e-08,4.267891086251173e-14,3.421038050431277e-05,0.999965789619453,1.4202041233468086e-18
20837.5,3.5036559460300107e-15,8397.212756966583,0.010000000000000002,0.0005000000000000001,8.277236906400939e-10,0.029609313848928568,0.9703906711111266,1.421222097198856e-08,4.0061080010717196e-14,3.375603871101779e-05,0.9999662439612489,1.2368328594222712e-18
21087.5,3.135244773153636e-15,8382.911073410221,0.010000000000000002,0.0005000000000000001,7.713357268247824e-10,0.02926410328449169,0.9707358821333996,1.3810773142160058e-08,3.671211668976481e-14,3.2784864934880225e-05,0.9999672151350285,1.1526317703430443e-18
21337.5,2.8055722191345024e-15,8366.01740849933,0.010000000000000002,0.0005000000000000001,7.185157741627196e-10,0.028917258881699277,0.9710827270752111,1.3324573757402122e-08,3.352131847716215e-14,3.179295058579796e-05,0.9999682070493807,1.0583793982758407e-18
21587.5,2.5105648988489894e-15,8336.797862040401,0.010000000000000002,0.0005000000000000001,6.95644393137123e-10,0.02930200600552103,0.9706979812140375,1.2084797208777568e-08,3.137216445435625e-14,3.13651336467482e-05,0.9999686348663219,8.818706081428648e-19
21837.5,2.246577745653984e-15,8336.136945857404,0.010000000000000002,0.0005000000000000001,6.184312100354159e-10,0.028087129495547015,0.9719128572827888,1.2603232972096192e-08,2.783161081567669e-14,2.9800080484684902e-05,0.9999701999194874,9.164797505226733e-19
22087.5,2.0103489734846856e-15,8318.84043390167,0.010000000000000002,0.0005000000000000001,5.744270465150809e-10,0.02770360413348163,0.9722963831297857,1.216230559674339e-08,2.5314909911423732e-14,2.8836683249354714e-05,0.9999711633167254,8.402527304543313e-19
22337.5,1.7989597747103243e-15,8321.595728451626,0.010000000000000002,0.0005000000000000001,5.004464304439365e-10,0.026208294365825446,0.973791692148105,1.2985623031971912e-08,2.2081973269470096e-14,2.7108531852948295e-05,0.999972891468125,9.02719687133916e-19
22587.5,1.609798255780531e-15,8311.16012443014,0.010000000000000002,0.0005000000000000001,4.5585036691330433e-10,0.02552350959803888,0.9744764769977009,1.2948409904904486e-08,1.984302223470336e-14,2.600700177816163e-05,0.999973992998202,8.721385020224969e-19
22837.5,1.4405271650564395e-15,8295.24390224035,0.010000000000000002,0.0005000000000000001,4.1743149825932226e-10,0.024943783775418907,0.9750562031437007,1.2663449051754714e-08,1.78126642655326e-14,2.4966087426718298e-05,0.9999750339125555,8.132649709072861e-19
23087.5,1.2890550140765279e-15,8282.044271963434,0.010000000000000002,0.0005000000000000001,3.80215895369722e-10,0.024292268457099576,0.9757077186379695,1.2524714943280629e-08,1.595171378649571e-14,2.391874660199014e-05,0.9999760812533821,7.729071679809099e-19
23337.5,1.1535102354357457e-15,8265.00721516467,0.010000000000000002,0.0005000000000000001,3.5069431694318963e-10,0.02385238884119258,0.9761475986639295,1.2144183573157068e-08,1.4402270534205828e-14,2.304488954763304e-05,0.9999769551104379,7.120481021108658e-19
23587.5,1.0322180579765649e-15,8259.932377511002,0.010000000000000002,0.0005000000000000001,3.101719733475267e-10,0.022788213029567874,0.977211774117971,1.2542289257925432e-08,1.2634901951208423e-14,2.1774635554003897e-05,0.9999782253644334,7.23394489730064e-19
23837.5,9.236798135652637e-16,8229.67684650863,0.010000000000000002,0.0005000000000000001,2.967332813799668e-10,0.02291610386710656,0.9770838844251535,1.1411006682430637e-08,1.1655919067130703e-14,2.1308666515881746e-05,0.9999786913334724,6.01335693319042e-19
24087.5,8.265544197709907e-16,8211.73211378222,0.010000000000000002,0.0005000000000000001,2.723264842656655e-10,0.022428637267740102,0.9775713513943047,1.106562870954489e-08,1.0456878822542501e-14,2.0458817638283105e-05,0.9999795411823513,5.5218012273646e-19
24337.5,7.396418096504039e-16,8205.149662829634,0.010000000000000002,0.0005000000000000001,2.4014336831644295e-10,0.021386842172251848,0.9786131461896765,1.139792827239683e-08,9.12891733404848e-15,1.9282776942609264e-05,0.9999807172230484,5.568738474888254e-19
24587.5,6.618681038987115e-16,8208.421722150235,0.010000000000000002,0.0005000000000000001,2.0482604909916047e-10,0.019954260366981152,0.9800457270687062,1.2359486610488431e-08,7.793672452782204e-15,1.789868544527983e-05,0.9999821013145469,6.087558983534209e-19
24837.5,5.92272342156443e-16,8181.015085863882,0.010000000000000002,0.0005000000000000001,1.9370618523624664e-10,0.019916515449335318,0.9800834729406294,1.1416329048594499e-08,7.12722693538659e-15,1.7416116650249573e-05,0.9999825838833426,5.1754522262561235e-19
25087.5,5.299946095259515e-16,8164.289447255668,0.010000000000000002,0.0005000000000000001,1.774831232823439e-10,0.019471871976182345,0.9805281167320593,1.1114275247430835e-08,6.3899652184676496e-15,1.671105369816395e-05,0.9999832889462955,4.785852185209742e-19
25337.5,4.742654115906186e-16,8148.539476431941,0.010000000000000002,0.0005000000000000001,1.6138702819441375e-10,0.018943107115502424,0.9810568818174336,1.090567696831977e-08,5.6915099801108295e-15,1.5969853477935338e-05,0.9999840301465164,4.472591755313365e-19
25587.5,4.2439616665611605e-16,8144.626153855964,0.010000000000000002,0.0005000000000000001,1.3984720930944925e-10,0.01785768948708665,0.9821422989219496,1.14511165838338e-08,4.89610539950088e-15,1.4914019513353884e-05,0.9999850859804817,4.63423190455009e-19
25837.5,3.7977069773723515e-16,8128.0146528450005,0.010000000000000002,0.0005000000000000001,1.269373489016087e-10,0.017352619063820164,0.9826473695914295,1.121781296090649e-08,4.348590659117152e-15,1.4231994448196275e-05,0.9999857680055474,4.311604733707649e-19
26087.5,3.3983761916655283e-16,8111.737514565047,0.010000000000000002,0.0005000000000000001,1.1565335680089622e-10,0.016903086240665853,0.983096902674421,1.0969259889383693e-08,3.877683508455008e-15,1.3611759262319497e-05,0.9999863882407337,4.0075719169949296e-19
26337.5,3.041035237550076e-16,8101.162366754732,0.010000000000000002,0.0005000000000000001,1.0271335652397793e-10,0.01619248891039566,0.9838074998870018,1.1099889199645711e-08,3.392482463838215e-15,1.2857530607495308e-05,0.999987142469389,3.9214425220736564e-19
26587.5,2.7212688632593404e-16,8101.54127687935,0.010000000000000002,0.0005000000000000001,8.685196643191568e-11,0.015021820781511526,0.984978167133032,1.1998604529400745e-08,2.8617472050912796e-15,1.1859078208236976e-05,0.9999881409217889,4.2378793873085627e-19
26837.5,2.435126082955436e-16,8095.893501105965,0.010000000000000002,0.0005000000000000001,7.605253584160298e-11,0.014257364827737056,0.9857426226589012,1.243730911063326e-08,2.482015983791243e-15,1.1132440368995048e-05,0.9999888675596285,4.312324769735517e-19
27087.5,2.1790713589349504e-16,8079.046429293619,0.010000000000000002,0.0005000000000000001,6.914812549155917e-11,0.013869129382028382,0.9861308583973187,1.2151504790305873e-08,2.2068214766928994e-15,1.0630887426529808e-05,0.9999893691125713,3.9965291421148673e-19
27337.5,1.9499409170500421e-16,8083.222922038189,0.010000000000000002,0.0005000000000000001,5.82283466774974e-11,0.012830457590202078,0.9871695290333431,1.3318226609954826e-08,1.8612561872602424e-15,9.79544225947214e-06,0.9999902045577386,4.431374461773465e-19
27587.5,1.744903655584904e-16,8064.1765365646625,0.010000000000000002,0.0005000000000000001,5.300215562702071e-11,0.012490531887612535,0.9875094551456437,1.2913741618299152e-08,1.652736526603623e-15,9.3519891284136e-06,0.9999906480108699,4.0476650296277574e-19
27837.5,1.5614261645833403e-16,8061.252716542975,0.010000000000000002,0.0005000000000000001,4.56581584324627e-11,0.011728204917494758,0.98827178139569,1.3641157129592671e-08,1.4144660553197427e-15,8.705406195044755e-06,0.9999912945938035,4.2324839527630665e-19
28087.5,1.3972414234115304e-16,8052.198589534366,0.010000000000000002,0.0005000000000000001,3.9836425077202394e-11,0.011104998776362535,0.9888949871602196,1.4023581429282195e-08,1.2178431821366192e-15,8.143862441155472e-06,0.9999918561375575,4.226391800881369e-19
28337.5,1.2503207897877403e-16,8031.0507059403335,0.010000000000000002,0.0005000000000000001,3.65868172544516e-11,0.01087427175570493,0.9891257147851089,1.3422599403061296e-08,1.088268379862169e-15,7.808046631286684e-06,0.9999921919533676,3.7843775413493573e-19
28587.5,1.118848934179498e-16,8012.104663646718,0.010000000000000002,0.0005000000000000001,3.340770744743569e-11,0.01060782613092411,0.9893921608556278,1.2980040514750803e-08,9.691263459837355e-16,7.46722527957219e-06,0.9999925327747194,3.446073336921544e-19
28837.5,1.0012014098614752e-16,7992.939444871235,0.010000000000000002,0.0005000000000000001,3.045978596959717e-11,0.01033781848016264,0.9896621689362654,1.2553112335106683e-08,8.615591333069432e-16,7.134494645504691e-06,0.9999928655053536,3.1352351074974996e-19
29087.5,8.959245814929566e-17,8006.4902732974915,0.010000000000000002,0.0005000000000000001,2.4732701933847966e-11,0.009337316224407402,0.9906626692451352,1.4505724596874886e-08,7.081065569048761e-16,6.460735461237357e-06,0.9999935392645382,3.776539632013965e-19
29337.5,8.01717664215421e-17,7988.662904216366,0.010000000000000002,0.0005000000000000001,2.228569789146496e-11,0.009029517326307033,0.9909704684539593,1.4197448071802915e-08,6.232243869115376e-16,6.134768224796983e-06,0.9999938652317746,3.4917095843637307e-19
29587.5,7.174166513479958e-17,7968.588815271694,0.010000000000000002,0.0005000000000000001,2.0329509179963317e-11,0.008802393127066625,0.9911975931699888,1.3682615120400711e-08,5.537688277592555e-16,5.860764025758728e-06,0.9999941392359737,3.1555917810720054e-19
29837.5,6.41979932093744e-17,7957.462293002629,0.010000000000000002,0.0005000000000000001,1.794673667202828e-11,0.008398448307299255,0.991601537820915,1.3853839115823124e-08,4.810711117951414e-16,5.514044551952174e-06,0.9999944859554475,3.081594513568712e-19
30087.5,5.744754215513362e-17,7941.9705800749825,0.010000000000000002,0.0005000000000000001,1.6089255743848595e-11,0.00809441025837548,0.9919055760309474,1.3694587755009857e-08,4.2226708091470053e-16,5.2247750968687575e-06,0.9999947752249027,2.8971735564090905e-19
30337.5,5.140690440124152e-17,7931.649714139896,0.010000000000000002,0.0005000000000000001,1.4140075097824653e-11,0.007700307521334364,0.9922996785259627,1.3938562850449371e-08,3.655235879413846e-16,4.904560391247198e-06,0.9999950954396084,2.8507986363869084e-19
30587.5,4.600144272459923e-17,7918.280783511975,0.010000000000000002,0.0005000000000000001,1.2582351556307448e-11,0.007385273033055154,0.9926147130200131,1.3934349406875088e-08,3.192015024024376e-16,4.63108775910306e-06,0.9999953689122405,2.7282538832617613e-19
30837.5,4.1164368043400064e-17,7897.884734374991,0.010000000000000002,0.0005000000000000001,1.1461964269602616e-11,0.007193030428630837,0.9928069561475275,1.3412379637336079e-08,2.830669327823159e-16,4.419844414343766e-06,0.9999955801555853,2.4573337544060583e-19
31087.5,3.6835914181151484e-17,7882.122615604281,0.010000000000000002,0.0005000000000000001,1.0283254026988629e-11,0.006935982865725731,0.9930640038943566,1.3229634479914438e-08,2.4851578320748173e-16,4.188954634141557e-06,0.9999958110453655,2.301660790638351e-19
31337.5,3.296259940467392e-17,7870.622289662605,0.010000000000000002,0.0005000000000000001,9.074184611998427e-12,0.006615810993078585,0.9933841756269176,1.3370929613427985e-08,2.1566066108422504e-16,3.939238882561327e-06,0.9999960607611171,2.2393457884201444e-19
31587.5,2.949656561174687e-17,7868.884380907933,0.010000000000000002,0.0005000000000000001,7.727836244748466e-12,0.0061649349381861585,0.9938350507835297,1.4270556238403084e-08,1.8266889869380635e-16,3.6436806468957867e-06,0.9999963563193529,2.3747792615337533e-19
31837.5,2.6394987003504284e-17,7851.160822394925,0.010000000000000002,0.0005000000000000001,6.970141002492948e-12,0.005965446634828796,0.9940345394249636,1.393323761463974e-08,1.6085302566183425e-16,3.4611383583904113e-06,0.9999965388616414,2.186966771756219e-19
32087.5,2.3619540935223472e-17,7839.5981419371765,0.010000000000000002,0.0005000000000000001,6.137527583008611e-12,0.005682105145229899,0.9943178807543194,1.4094313163877778e-08,1.392786323761914e-16,3.250723316342376e-06,0.9999967492766835,2.128648155470042e-19
32337.5,2.1135934407417285e-17,7820.013547957806,0.010000000000000002,0.0005000000000000001,5.575016240964925e-12,0.0055238220815938335,0.9944761643038759,1.3608955285522235e-08,1.232298710236374e-16,3.097984258730017e-06,0.9999969020157411,1.9259777903209052e-19
32587.5,1.8913480346624623e-17,7810.668786850638,0.010000000000000002,0.0005000000000000001,4.861666121299916e-12,0.005228050150702415,0.9947719358942854,1.3950150594448883e-08,1.0594500903284957e-16,2.8960560848274123e-06,0.9999971039439152,1.913089468142441e-19
