velocity,density,temperature,si,ca,si0,si1,si2,si3,ca0,ca1,ca2,ca3
12900.0,2.541277005499972e-13,15963.12428649755,0.5,0.0,1.88245607696201e-15,5.723394890335347e-07,0.12775843297413036,0.8718266386587946,,,,
13100.0,2.27406045894926e-13,16274.987309862443,0.5,0.0,1.861819799903609e-15,5.626158120131638e-07,0.11438076415576597,0.8850625054115577,,,,
13350.0,2.0349418657487557e-13,16158.538355253368,0.5,0.0,3.899529971215065e-15,1.0930713941770218e-06,0.16248566517132937,0.8371884440759618,,,,
13600.0,1.8209667120681525e-13,15355.244146713132,0.5,0.0,2.0811789824707128e-14,5.004765641657191e-06,0.4015302174440806,0.5984221139289263,,,,
13850.0,1.6294911526822446e-13,13961.709257179282,0.5,0.0,1.889898219678044e-13,3.225482762603044e-05,0.8746468627010451,0.12532053082744196,,,,
14100.0,1.4581493440119145e-13,12820.157628975874,0.050890585241730284,0.0005089058524173028,9.851985907332698e-13,0.00010819602349597785,0.9861902235467386,0.013701578869719708,1.8808451935947455e-15,1.4039030279089492e-06,0.9999985911448027,4.952167506199932e-09
14350.0,1.3048242121121783e-13,12661.426335896705,0.050890585241730284,0.0005089058524173028,1.2394931029430957e-12,0.00013100448258137953,0.9904652263117338,0.009403768565980651,2.1237005269802326e-15,1.5781258541988786e-06,0.9999984191054679,2.768675705435626e-09
14600.0,1.1676212944208938e-13,12558.461349720144,0.050890585241730284,0.0005089058524173028,1.5245202081052051e-12,0.00015585194542680733,0.992871752964724,0.006972394768808351,2.406757820450983e-15,1.770061459953193e-06,0.9999982281484074,1.7901302678928906e-09
14850.0,1.0448453320606487e-13,12381.55974001295,0.050890585241730284,0.0005089058524173028,1.987844308359173e-12,0.00019297160555498856,0.9952897650741056,0.004517263204000908,2.7863680298331803e-15,2.0216938556081933e-06,0.9999979773894885,9.166530164038878e-10
15100.0,9.349793234718112e-14,12245.512972917284,0.050890585241730284,0.0005089058524173028,2.42439156062989e-12,0.00022827313483821587,0.9965687446295983,0.003202982182428487,3.0883005645918584e-15,2.2392020001784844e-06,0.9999977602579702,5.400265687629747e-10
15350.0,8.366657805665178e-14,12138.737200598343,0.050890585241730284,0.0005089058524173028,2.890121901213719e-12,0.000265703528411133,0.99734761696162,0.0023866794816273205,3.3952915831031947e-15,2.460829413950957e-06,0.9999975388238311,3.467514812709432e-10
15600.0,7.486899558074395e-14,11990.281265871896,0.050890585241730284,0.0005089058524173028,3.5425348604030037e-12,0.0003152305783811792,0.9980391181090394,0.001645651298527174,3.756363834403701e-15,2.723171165989517e-06,0.9999972766348331,1.939971834969876e-10
15850.0,6.69964832967591e-14,11872.403893697017,0.050890585241730284,0.0005089058524173028,4.20214550000381e-12,0.000365619429115497,0.9984303398186473,0.0012040407430203251,4.088039375182237e-15,2.9739330758185627e-06,0.9999970259471785,1.1974151100663326e-10
16100.0,5.995176961192406e-14,11711.565353996059,0.050890585241730284,0.0005089058524173028,5.197952708502718e-12,0.000436228454539,0.9987603450331853,0.0008034265051724216,4.528417291724147e-15,3.2950096447727995e-06,0.9999967049272303,6.312043724322535e-11
16350.0,5.3647811090035056e-14,11508.679917333047,0.050890585241730284,0.0005089058524173028,6.984218974177167e-12,0.0005497505719782048,0.9989763010675949,0.0004739483529027755,5.295162850482014e-15,3.788701876894458e-06,0.9999962112706937,2.7424157697323903e-11
16600.0,4.800671695568517e-14,11399.332258961424,0.050890585241730284,0.0005089058524173028,8.369634276151265e-12,0.0006413682481560919,0.9990146600156498,0.0003439717275710328,5.828418540916777e-15,4.160393169590446e-06,0.9999958395900439,1.678065152954026e-11
16850.0,4.295878668740975e-14,11235.07521645969,0.050890585241730284,0.0005089058524173028,1.0545879575893784e-11,0.0007740871486514059,0.9990047249732706,0.0002211878674441257,6.527563312408313e-15,4.642099889287131e-06,0.9999953578917873,8.3168802841517e-12
17100.0,3.844164880839298e-14,11060.72995875142,0.050890585241730284,0.0005089058524173028,1.3548486347852983e-11,0.0009462405124887639,0.9989166182294479,0.0001371412444869677,7.388835068041426e-15,5.219705843224032e-06,0.9999947802902694,3.879998988595326e-12
17350.0,3.4399490233762105e-14,10974.24195151212,0.050890585241730284,0.0005089058524173028,1.5381784093134228e-11,0.0010648903280546615,0.9988294609109638,0.00010564874558468216,7.812064693631667e-15,5.577773133780447e-06,0.9999944222242746,2.5839037276947566e-12
17600.0,3.0782366652398595e-14,10870.252099245581,0.050890585241730284,0.0005089058524173028,1.817353253031038e-11,0.0012303739998945765,0.9986928008711925,7.682511073227347e-05,8.485238908324356e-15,6.069134891146961e-06,0.9999939308635273,1.5730745840286397e-12
17850.0,2.7545585422446264e-14,10707.964552978892,0.050890585241730284,0.0005089058524173028,2.340119435947759e-11,0.0015054211001633091,0.998446939983915,4.76388925182874e-05,9.650972605855992e-15,6.8363866090098445e-06,0.9999931636126459,7.354462915761699e-13
18100.0,2.464915335566515e-14,10522.259195124916,0.050890585241730284,0.0005089058524173028,3.20940269951888e-11,0.0019199314703737022,0.9980531169857401,2.695151179167365e-05,1.145611522518488e-14,7.926296209230431e-06,0.9999920737034814,2.980782003192967e-13
18350.0,2.2057282567535988e-14,10358.309892615078,0.050890585241730284,0.0005089058524173028,4.308811209125626e-11,0.002413448050950807,0.9975706479648058,1.5903941155203786e-05,1.3471473238132733e-14,9.116638283301544e-06,0.9999908833615735,1.2971760351176298e-13
18600.0,1.973794828747372e-14,10133.600113771103,0.050890585241730284,0.0005089058524173028,6.418096521827667e-11,0.0032498336011086712,0.996742435191537,7.73114317350477e-06,1.6737990331811392e-14,1.0932752337753542e-05,0.9999890672476046,4.0928907727017615e-14
18850.0,1.7662493165517183e-14,9831.65136264629,0.050890585241730284,0.0005089058524173028,1.2007794757020592e-10,0.005081164899045191,0.994916124430691,2.7105501860579365e-06,2.42945963968814e-14,1.4559004079143638e-05,0.9999854409958888,7.786757079118868e-15
19100.0,1.5805273186368752e-14,9645.958713401673,0.010000000000000002,0.0005000000000000001,1.8495185332982376e-10,0.006952476139038231,0.9930461839361456,1.3397398643771578e-06,3.1706844449934016e-14,1.786080073571697e-05,0.9999821391992301,2.5928659479754766e-15
19350.0,1.4143340815749032e-14,9550.240037114823,0.010000000000000002,0.0005000000000000001,2.1381529314463063e-10,0.007914406117183524,0.992084637812866,9.558561351730275e-07,3.354241022530528e-14,1.9135141374513e-05,0.9999808648585904,1.4996926925991397e-15
19600.0,1.2656161464070822e-14,9570.58592322828,0.010000000000000002,0.0005000000000000001,1.89633289140021e-10,0.007568330705129148,0.9924306263310069,1.0427742306812111e-06,3.011709181872994e-14,1.8259320359572348e-05,0.9999817406796087,1.7089467905348087e-15
19850.0,1.1325359764099596e-14,9510.503692535736,0.010000000000000002,0.0005000000000000001,2.043425972667531e-10,0.008225579539347744,0.9917735804364552,8.398198545953442e-07,3.0610632399143406e-14,1.8993100252495713e-05,0.9999810068997157,1.2040835381580238e-15
20100.0,1.0134492527644325e-14,9514.958212909589,0.010000000000000002,0.0005000000000000001,1.8339071726446346e-10,0.00792888577584296,0.9920702354443591,8.785964072006516e-07,2.743307046430383e-14,1.814832259682606e-05,0.9999818516773743,1.2707344000365081e-15
20350.0,9.068845575966058e-15,9449.67617704917,0.010000000000000002,0.0005000000000000001,1.930492290649835e-10,0.008488343274156578,0.9915109468973557,7.096354384259774e-07,2.7137817381681593e-14,1.8594127930476093e-05,0.9999814058720417,8.862006960155406e-16
20600.0,8.115251933570281e-15,9395.705828283017,0.010000000000000002,0.0005000000000000001,1.9820380645707518e-10,0.008939183639144185,0.9910602197090718,5.964535802636621e-07,2.6431599046680948e-14,1.884246346807219e-05,0.9999811575365047,6.58594385429609e-16
20850.0,7.261929139012919e-15,9417.134149577281,0.010000000000000002,0.0005000000000000001,1.6695193653761522e-10,0.008266426123528308,0.9917328974950187,6.762145009990746e-07,2.2576535840953126e-14,1.74490572442945e-05,0.9999825509427324,7.829342483248581e-16
21100.0,6.498333662556294e-15,9440.532330046528,0.010000000000000002,0.0005000000000000001,1.417056058432317e-10,0.007681774595030169,0.9923174595881131,7.656751511871012e-07,1.944299286992721e-14,1.6231206032159376e-05,0.9999837687939476,9.334537117056182e-16
21350.0,5.8150306318814175e-15,9396.11864325394,0.010000000000000002,0.0005000000000000001,1.4336902836872475e-10,0.00801182793276281,0.9919875082666677,6.636572005823114e-07,1.880574864603704e-14,1.6351665119226642e-05,0.9999836483348613,7.308818026290275e-16
21600.0,5.203577256206519e-15,9368.076331076514,0.010000000000000002,0.0005000000000000001,1.359307300645783e-10,0.008008201536153586,0.9919911756173773,6.227105383804898e-07,1.730559830703205e-14,1.595331700776359e-05,0.9999840466829744,6.425964845654903e-16
21850.0,4.656418508417915e-15,9331.805504016735,0.010000000000000002,0.0005000000000000001,1.3145917982351266e-10,0.008109731515905763,0.9918897025381062,5.658145288098892e-07,1.61260138215186e-14,1.570207079607958e-05,0.9999842979291872,5.366502739509359e-16
22100.0,4.1667937762768275e-15,9310.49508436227,0.010000000000000002,0.0005000000000000001,1.2112058190853518e-10,0.007955635136379296,0.9920438156982736,5.490442265411606e-07,1.4509862634953507e-14,1.5101053961132754e-05,0.9999848989460239,4.951900405402017e-16
22350.0,3.728653329298425e-15,9324.381284399758,0.010000000000000002,0.0005000000000000001,1.0396253533259739e-10,0.007448001739328529,0.9925513935486031,6.046081057936425e-07,1.2528480519572136e-14,1.408781005514281e-05,0.9999859121899318,5.623844726566747e-16
22600.0,3.336583569180362e-15,9315.949162555962,0.010000000000000002,0.0005000000000000001,9.345819041699522e-11,0.0071885890203912005,0.9928107970132144,6.138729362618455e-07,1.1114922823742291e-14,1.3405446449441582e-05,0.9999865945535389,5.593323037608631e-16
22850.0,2.985740140185964e-15,9280.044726781543,0.010000000000000002,0.0005000000000000001,8.852611874156682e-11,0.007182209217269436,0.9928172250642405,5.65629963811266e-07,1.0154291151927937e-14,1.3040869955379638e-05,0.999986959130034,4.7368249908972155e-16
23100.0,2.6717880730041475e-15,9252.322159263016,0.010000000000000002,0.0005000000000000001,8.331135612400022e-11,0.0071444329153407815,0.9928550340851052,5.32916242664576e-07,9.273683001355089e-15,1.2665203679345176e-05,0.999987334796311,4.178290624215733e-16
23350.0,2.3908482225122977e-15,9225.334258120889,0.010000000000000002,0.0005000000000000001,7.841474580071329e-11,0.007107428808800426,0.9928920684230874,5.026896974923718e-07,8.473935341847496e-15,1.2302529696132307e-05,0.999987697470295,3.6949126461159633e-16
23600.0,2.1394493376351443e-15,9184.589852617602,0.010000000000000002,0.0005000000000000001,7.562504266232396e-11,0.0071855672145035845,0.9928139809197016,4.517901697908675e-07,7.842890791727626e-15,1.2070792573104011e-05,0.9999879292074187,3.012281001391788e-16
23850.0,1.9144851710819647e-15,9173.629408653198,0.010000000000000002,0.0005000000000000001,6.755352344950575e-11,0.006907128110944622,0.9930924140992947,4.577222071408867e-07,6.9004733513428614e-15,1.1434993925970713e-05,0.9999885650060668,2.969923679949428e-16
24100.0,1.713176099016276e-15,9156.232308972507,0.010000000000000002,0.0005000000000000001,6.111291928713504e-11,0.0066953010809719885,0.9933042459012392,4.5295667569054786e-07,6.114937575071661e-15,1.0891058842000426e-05,0.9999891089411517,2.816372903210309e-16
24350.0,1.5330347764364953e-15,9153.0298773545,0.010000000000000002,0.0005000000000000001,5.334613476350672e-11,0.006338947729378215,0.9936605777678229,4.7444945275300524e-07,5.293356285735264e-15,1.0204676588729454e-05,0.9999897953234056,2.924245208561268e-16
24600.0,1.3718354039104368e-15,9147.624906172125,0.010000000000000002,0.0005000000000000001,4.704371948934155e-11,0.006041696404792977,0.9939578125432662,4.910048971907934e-07,4.618278816481831e-15,9.609155776877604e-06,0.9999903908442183,2.9839937863613536e-16
24850.0,1.2275862259280359e-15,9125.728867241789,0.010000000000000002,0.0005000000000000001,4.2994155202210194e-11,0.0058958583566708885,0.9941036642039665,4.773963685448785e-07,4.117532128895055e-15,9.192113304282289e-06,0.9999908078866914,2.749722490913324e-16
25100.0,1.0985049210660464e-15,9130.959103796822,0.010000000000000002,0.0005000000000000001,3.632064735107853e-11,0.0054631609071039535,0.994536317789325,5.212672504065141e-07,3.476353279437457e-15,8.474085428941269e-06,0.9999915259145674,3.0372618058096184e-16
25350.0,9.829965798891737e-16,9133.878852695087,0.010000000000000002,0.0005000000000000001,3.125459489879222e-11,0.005123481462548909,0.9948759594646198,5.590415766630797e-07,2.9806396721609294e-15,7.885818556804752e-06,0.9999921141814399,3.2766398328495033e-16
25600.0,8.796339984859442e-16,9103.666302415153,0.010000000000000002,0.0005000000000000001,2.901705330153543e-11,0.005052211557974873,0.9949472610366539,5.273763540697334e-07,2.6807474319806744e-15,7.593983987059499e-06,0.9999924060160099,2.871001473162857e-16
25850.0,7.871400441490932e-16,9081.45240337819,0.010000000000000002,0.0005000000000000001,2.6602282567344192e-11,0.004940302244089109,0.9950591867301548,5.109991537181648e-07,2.3957860444138804e-15,7.274715503965289e-06,0.9999927252844933,2.6331506132023303e-16
26100.0,7.043718753134748e-16,9079.660827358748,0.010000000000000002,0.0005000000000000001,2.291667554421152e-11,0.004636859185402082,0.9953625991690456,5.416226356861254e-07,2.049178765872037e-15,6.766016023041199e-06,0.9999932339839745,2.775980441171781e-16
26350.0,6.303068207753985e-16,9084.97000820561,0.010000000000000002,0.0005000000000000001,1.9204485371370746e-11,0.004273832122865249,0.9957255731941846,5.946637455612519e-07,1.7165685623499015e-15,6.208322119897454e-06,0.9999937916778779,3.0844622924391893e-16
26600.0,5.640297437190854e-16,9049.197061502204,0.010000000000000002,0.0005000000000000001,1.8216548088881853e-11,0.00427429954910718,0.9957251551689948,5.452636814579742e-07,1.5685453002932757e-15,6.040692108579254e-06,0.9999939593078897,2.5893084335283683e-16
26850.0,5.047217344220648e-16,9051.725434039816,0.010000000000000002,0.0005000000000000001,1.5460236871169743e-11,0.003972432996154357,0.9960269773019131,5.896864722880809e-07,1.3267765008829816e-15,5.5769785037426215e-06,0.9999944230214947,2.8148706108763803e-16
27100.0,4.516499919282499e-16,9011.496659427834,0.010000000000000002,0.0005000000000000001,1.4844508373440525e-11,0.004004977055109078,0.99599449263191,5.30298136392667e-07,1.222216916328391e-15,5.457056810373834e-06,0.9999945429431881,2.290755773225616e-16
27350.0,4.0415876966813294e-16,8994.614004130175,0.010000000000000002,0.0005000000000000001,1.3272031970946924e-11,0.003852376778480332,0.9961470945062029,5.28702044747483e-07,1.0706563055712664e-15,5.1617377111501e-06,0.9999948382622876,2.1883679799192344e-16
27600.0,3.6166127315155164e-16,8963.736257231061,0.010000000000000002,0.0005000000000000001,1.2183190941264052e-11,0.003771166697265029,0.996228332616531,5.006740209624073e-07,9.519930534926485e-16,4.9391727458037705e-06,0.9999950608272531,1.9175845491392955e-16
27850.0,3.2363240962210097e-16,8963.96398888338,0.010000000000000002,0.0005000000000000001,1.0376711961993297e-11,0.003513136563356034,0.9964863262222677,5.372039995936739e-07,8.065627241943916e-16,4.566197726784214e-06,0.9999954338022722,2.056747906663656e-16
28100.0,2.896023000890045e-16,8957.47111013257,0.010000000000000002,0.0005000000000000001,8.95079060595315e-12,0.003300434373054616,0.9966990032839316,5.623340629895531e-07,6.882508512121533e-16,4.244790516749142e-06,0.9999957552094823,2.1164927618088492e-16
28350.0,2.5915047357208356e-16,8932.817945195746,0.010000000000000002,0.0005000000000000001,8.176385447561704e-12,0.003220042508034745,0.9967794154765389,5.420072500031746e-07,6.116434273847318e-16,4.05529761400673e-06,0.9999959447023852,1.9160216348110493e-16
28600.0,2.319006718247571e-16,8920.081587204248,0.010000000000000002,0.0005000000000000001,7.17239897662317e-12,0.0030588766982901265,0.9969405708270219,5.524675157075606e-07,5.278216864252807e-16,3.7994262008142966e-06,0.9999962005737986,1.8897972001639994e-16
28850.0,2.0751620034302264e-16,8910.95307840025,0.010000000000000002,0.0005000000000000001,6.254877751344005e-12,0.002894382884312143,0.997105046846432,5.702630010911197e-07,4.540878355354121e-16,3.550612289177548e-06,0.9999964493877103,1.9045852981767032e-16
29100.0,1.856957682181596e-16,8897.339269010201,0.010000000000000002,0.0005000000000000001,5.544814715910374e-12,0.002768414305356286,0.997231009891094,5.757980048076973e-07,3.9537297513420236e-16,3.3443791507395496e-06,0.9999966556208487,1.8562974816287274e-16
29350.0,1.6616976543099967e-16,8878.934536664156,0.010000000000000002,0.0005000000000000001,4.945100352967393e-12,0.0026587354017417577,0.997340692347777,5.722455361570704e-07,3.450698307606824e-16,3.157748435161902e-06,0.9999968422515643,1.7591864795498293e-16
29600.0,1.4869693159056714e-16,8875.029175801219,0.010000000000000002,0.0005000000000000001,4.234505859821648e-12,0.002485653925029407,0.9975137405409966,6.055297395170758e-07,2.9290116937185133e-16,2.9247652451922832e-06,0.9999970752347543,1.841565505494367e-16
29850.0,1.3306137495651124e-16,8862.110721991172,0.010000000000000002,0.0005000000000000001,3.716052707798893e-12,0.0023618483882014082,0.9976375351440392,6.164640433265283e-07,2.527670904320662e-16,2.740336914992704e-06,0.9999972596630845,1.8126049375786043e-16
30100.0,1.1906990491282231e-16,8839.839066106057,0.010000000000000002,0.0005000000000000001,3.3759636960833283e-12,0.0022959729486539625,0.9977034279715185,5.990764515076467e-07,2.23764781653938e-16,2.6109509343024206e-06,0.9999973890490653,1.6624056586080848e-16
30350.0,1.0654964493326699e-16,8828.53357549215,0.010000000000000002,0.0005000000000000001,2.953766379970763e-12,0.002177254169276261,0.9978221324382947,6.133894753984204e-07,1.9275666325415989e-16,2.442908783431857e-06,0.9999975570912163,1.6520392981093478e-16
30600.0,9.534589654470015e-17,8821.741836683575,0.010000000000000002,0.0005000000000000001,2.542210361742488e-12,0.002042409657037465,0.997956948208857,6.421315631388097e-07,1.6404409489720866e-16,2.267468091591257e-06,0.9999977325319082,1.6981462251195208e-16
30850.0,8.532022789570408e-17,8815.248021386291,0.010000000000000002,0.0005000000000000001,2.1815726051138117e-12,0.001912229636892196,0.998087096334833,6.740260933294675e-07,1.3925733534784206e-16,2.101420005281928e-06,0.9999978985799943,1.751573691019679e-16
31100.0,7.63487633131863e-17,8821.165706339718,0.010000000000000002,0.0005000000000000001,1.8224854886104585e-12,0.0017585862781021725,0.9982406708920604,7.428280149089125e-07,1.162586837529408e-16,1.9234541657480173e-06,0.999998076545834,1.958356520787427e-16
31350.0,6.832065271295936e-17,8788.809939839393,0.010000000000000002,0.0005000000000000001,1.6928563391712298e-12,0.0017350053799456858,0.9982643014358302,6.931825313008493e-07,1.0433188079211797e-16,1.8513502962064138e-06,0.9999981486497035,1.6794771740558707e-16
31600.0,6.113670195255989e-17,8761.117728940093,0.010000000000000002,0.0005000000000000001,1.5573558282167898e-12,0.0017007781348618552,0.9982985635416597,6.583219209989494e-07,9.307339486041847e-17,1.7740434362661167e-06,0.9999982259565635,1.4828409556056635e-16
31850.0,5.4708147203153835e-17,8737.871593229638,0.010000000000000002,0.0005000000000000001,1.4111061688030765e-12,0.001650607217545173,0.9983487542917275,6.38489316148168e-07,8.2117844273715e-17,1.6875253780976198e-06,0.9999983124746216,1.352155092763792e-16
32100.0,4.895555819684887e-17,8716.748518489587,0.010000000000000002,0.0005000000000000001,1.2701025700511398e-12,0.001594885977295102,0.998404488825649,6.251957857975666e-07,7.210767125701692e-17,1.6000855286480958e-06,0.999998399914471,1.2514181119837876e-16
