velocity,density,temperature,si,ca,si0,si1,si2,si3,ca0,ca1,ca2,ca3
13137.5,2.27406045894926e-13,15140.261882712983,0.5,0.0,9.434977011804638e-15,2.5546974593919332e-06,0.3286484697114466,0.6712896307150421,,,,
13362.5,2.0349418657487557e-13,15055.655231215278,0.5,0.0,1.737502759950189e-14,4.388997362185003e-06,0.4174806977627762,0.5824818133429202,,,,
13612.5,1.8209667120681525e-13,14351.401079403402,0.5,0.0,6.588387694204829e-14,1.4048130307824201e-05,0.7160400743200044,0.2839429660908483,,,,
13862.5,1.6294911526822446e-13,13084.359962896988,0.5,0.0,4.4772305962429553e-13,6.122567956516292e-05,0.9679642060608598,0.03197455745401003,,,,
14112.5,1.4581493440119145e-13,12137.498871222999,0.050890585241730284,0.0005089058524173028,2.0768276438926788e-12,0.00018052038501245002,0.9962522484377405,0.003567231117378821,2.7106202475318643e-15,1.8617145029738685e-06,0.9999981377596028,5.258914812204432e-10
14362.5,1.3048242121121783e-13,12035.710896083308,0.050890585241730284,0.0005089058524173028,2.5333002835230375e-12,0.00021338484950035458,0.9971567037889846,0.0026299113305028737,3.0505338974921118e-15,2.08037264500584e-06,0.999997919291768,3.355839695943375e-10
14612.5,1.1676212944208938e-13,11891.780217572188,0.050890585241730284,0.0005089058524173028,3.299993001159025e-12,0.00026349262957911306,0.9979897211147188,0.0017467862414791916,3.569845835470525e-15,2.389376387263307e-06,0.9999976104423616,1.812474921709546e-10
14862.5,1.0448453320606487e-13,11799.974377613673,0.050890585241730284,0.0005089058524173028,3.881378202674338e-12,0.0003038198368721586,0.9983661591613628,0.0013300209921048392,3.901901432759345e-15,2.6164524343620853e-06,0.9999973834269797,1.2058184599667275e-10
15112.5,9.349793234718112e-14,11661.237840883989,0.050890585241730284,0.0005089058524173028,4.8296165135370855e-12,0.0003637906568514014,0.9987262188692747,0.0009099904666907567,4.38175974512713e-15,2.9248144030578047e-06,0.999997075118474,6.71184985167848e-11
15362.5,8.366657805665178e-14,11503.181371560548,0.050890585241730284,0.0005089058524173028,6.330689249385171e-12,0.0004507329210083944,0.9989675902965348,0.0005816767753085454,5.107078738175064e-15,3.350649004467187e-06,0.9999966493172646,3.372573790143363e-11
15612.5,7.486899558074395e-14,11396.431731265311,0.050890585241730284,0.0005089058524173028,7.663434913683646e-12,0.0005294140173722488,0.999049567128367,0.0004210188462146788,5.6799495656017585e-15,3.7092706922563573e-06,0.9999962907086422,2.0659940320747025e-11
15862.5,6.69964832967591e-14,11366.331378938643,0.050890585241730284,0.0005089058524173028,8.009312233605345e-12,0.0005639503483773029,0.9990594594763932,0.0003765901669239824,5.744607174901732e-15,3.842474219210082e-06,0.999996157508178,1.7596954575383114e-11
16112.5,5.995176961192406e-14,11320.146077529655,0.050890585241730284,0.0005089058524173028,8.526370533694784e-12,0.0006081996759015489,0.9990672280129728,0.000324572302390159,5.856514777176228e-15,4.0051737436458875e-06,0.999995994812173,1.4077538940056518e-11
16362.5,5.3647811090035056e-14,11175.4158819906,0.050890585241730284,0.0005089058524173028,1.0788655043292573e-11,0.0007357205935705634,0.9990504522108444,0.0002138271847186506,6.6396706727861194e-15,4.498825276937084e-06,0.9999955011673698,7.346611242494217e-12
16612.5,4.800671695568517e-14,11016.389110949714,0.050890585241730284,0.0005089058524173028,1.3612903461993017e-11,0.0008885151209509694,0.9989743707419809,0.00013711412342847507,7.434130402095704e-15,5.02253801323242e-06,0.9999949774583555,3.6238218232903344e-12
16862.5,4.295878668740975e-14,10935.659010591151,0.050890585241730284,0.0005089058524173028,1.5327349281415793e-11,0.000994460760769099,0.9988984218190934,0.00010711740479523172,7.824008575195907e-15,5.353261291655324e-06,0.9999946467362321,2.4685238282308704e-12
17112.5,3.844164880839298e-14,10817.477359747209,0.050890585241730284,0.0005089058524173028,1.859925182412992e-11,0.0011695506903153738,0.9987557990002446,7.465029083442e-05,8.635052274280526e-15,5.896441310182491e-06,0.9999941035572776,1.4037843714617616e-12
17362.5,3.4399490233762105e-14,10659.640342845953,0.050890585241730284,0.0005089058524173028,2.487166019491975e-11,0.0014663981549997362,0.9984882415976654,4.53602224612265e-05,1.0181296700552068e-14,6.790643642058104e-06,0.9999932093557018,6.46008412324653e-13
17612.5,3.0782366652398595e-14,10512.747402093188,0.050890585241730284,0.0005089058524173028,3.133870886328565e-11,0.0017681910537028585,0.9982028055846967,2.900333026116302e-05,1.1403106044761448e-14,7.57302095305339e-06,0.9999924269787189,3.166621707208364e-13
17862.5,2.7545585422446264e-14,10407.963205394866,0.050890585241730284,0.0005089058524173028,3.689419955060539e-11,0.0020379543083155352,0.9979412557986,2.0789856190026233e-05,1.2291333854144513e-14,8.209818055730551e-06,0.9999917901817452,1.8685679028162504e-13
18112.5,2.464915335566515e-14,10236.312928678837,0.050890585241730284,0.0005089058524173028,5.130075823703204e-11,0.002621109780597681,0.9973671551133863,1.1735054715073516e-05,1.4818057723932427e-14,9.60326625654587e-06,0.9999903967336525,7.610773283851983e-14
18362.5,2.2057282567535988e-14,10058.2798827099,0.050890585241730284,0.0005089058524173028,7.260899701106908e-11,0.003410359037064841,0.9965832459067893,6.394983536947927e-06,1.803270253631632e-14,1.131124697561164e-05,0.9999886887529772,2.923106803746037e-14
18612.5,1.973794828747372e-14,9871.705498737654,0.050890585241730284,0.0005089058524173028,1.0762573502649397e-10,0.004572097227565473,0.9954246216822376,3.280982571184854e-06,2.2723371664236898e-14,1.3623088956658127e-05,0.9999863769110104,1.0257403102167287e-14
18862.5,1.7662493165517183e-14,9530.332002009061,0.050890585241730284,0.0005089058524173028,2.3093515771248162e-10,0.007815229939423426,0.9921838378388272,9.31990814114926e-07,3.597432755874054e-14,1.9265897133700003e-05,0.9999807341028288,1.402193427246743e-15
19112.5,1.5805273186368752e-14,9299.64208039974,0.010000000000000002,0.0005000000000000001,4.091115951106641e-10,0.011714346883033645,0.9882852840475832,3.686602716170938e-07,5.126637622727982e-14,2.513715610883328e-05,0.9999748628438395,3.2855221243663305e-16
19362.5,1.4143340815749032e-14,9250.616117660837,0.010000000000000002,0.0005000000000000001,4.2694693596601683e-10,0.012465491894632239,0.9875341989798594,3.0869856146016566e-07,5.0933539015850504e-14,2.576526356832654e-05,0.9999742347363805,2.4516629502140014e-16
19612.5,1.2656161464070822e-14,9191.201025643786,0.010000000000000002,0.0005000000000000001,4.554746672183736e-10,0.013457941096020816,0.9865418101659388,2.482825657609232e-07,5.120322088737661e-14,2.6642745879588016e-05,0.9999733572540691,1.7124406304176803e-16
19862.5,1.1325359764099596e-14,9182.48787940281,0.010000000000000002,0.0005000000000000001,4.283935701048531e-10,0.013377678209540972,0.9866220769674174,2.443946480825698e-07,4.7623317340368186e-14,2.607769204529328e-05,0.9999739223079068,1.6494952762569287e-16
20112.5,1.0134492527644325e-14,9177.503472809854,0.010000000000000002,0.0005000000000000001,3.922870563926556e-10,0.013068293181878021,0.9869314593443959,2.4708143909450764e-07,4.32728503516719e-14,2.5159136535430237e-05,0.999974840863421,1.6462347972042628e-16
20362.5,9.068845575966058e-15,9149.659739110088,0.010000000000000002,0.0005000000000000001,3.789048060444639e-10,0.013220864037127276,0.9867789071799424,2.284040254992e-07,4.057692432975414e-14,2.4828132325181726e-05,0.999975171867634,1.422434849254179e-16
20612.5,8.115251933570281e-15,9143.069637817582,0.010000000000000002,0.0005000000000000001,3.567307489285385e-10,0.013150546364443124,0.9868492275677759,2.257110501691129e-07,3.7815338201879474e-14,2.4318026640204907e-05,0.9999756819733219,1.3822434507872163e-16
20862.5,7.261929139012919e-15,9097.058318896785,0.010000000000000002,0.0005000000000000001,3.511155155664276e-10,0.013471933991272849,0.9865278683993977,1.972582139772419e-07,3.552200888495223e-14,2.4101978262439302e-05,0.999975898021702,1.080021515066706e-16
21112.5,6.498333662556294e-15,9066.130820167207,0.010000000000000002,0.0005000000000000001,3.438584928670493e-10,0.013753217565457705,0.9862466029908213,1.7909986235210451e-07,3.365078498585927e-14,2.3940422986093147e-05,0.9999760595769801,9.086628267323569e-17
21362.5,5.8150306318814175e-15,9050.076122999715,0.010000000000000002,0.0005000000000000001,3.261437705078826e-10,0.01374849937463666,0.9862513281920499,1.721071696412267e-07,3.130288579289679e-14,2.3461831700292256e-05,0.9999765381682684,8.387117323222234e-17
21612.5,5.203577256206519e-15,9020.60875127302,0.010000000000000002,0.0005000000000000001,3.1347443958983214e-10,0.013865717894390405,0.9861341230960686,1.5869606655047658e-07,2.914183733614022e-14,2.3060754557745008e-05,0.9999769392454131,7.186017093056201e-17
21862.5,4.656418508417915e-15,9008.622142988159,0.010000000000000002,0.0005000000000000001,2.91468380656037e-10,0.013682318471180841,0.9863175252081602,1.560291907037057e-07,2.6671762266216918e-14,2.2367375401358577e-05,0.999977632624572,6.85173146051512e-17
22112.5,4.1667937762768275e-15,9015.77579156937,0.010000000000000002,0.0005000000000000001,2.537310161002123e-10,0.012931814103141455,0.9870680176686066,1.6797452079131305e-07,2.3276325057768658e-14,2.1021533059169817e-05,0.9999789784669174,7.498276679447087e-17
22362.5,3.728653329298425e-15,8994.848528552553,0.010000000000000002,0.0005000000000000001,2.3275809425224237e-10,0.012651132913657239,0.987348703739141,1.6311444366626217e-07,2.085514513849167e-14,2.0170169678619332e-05,0.9999798298303003,6.90611083755705e-17
22612.5,3.336583569180362e-15,8976.744682834045,0.010000000000000002,0.0005000000000000001,2.175487065305773e-10,0.012527365983389698,0.987472476381285,1.57417776512558e-07,1.9071280982197852e-14,1.9575371201870292e-05,0.999980424628779,6.364756230202969e-17
22862.5,2.985740140185964e-15,8973.182530692507,0.010000000000000002,0.0005000000000000001,1.9272113030617747e-10,0.011977258256583823,0.9880225783733764,1.6317731861800492e-07,1.6763488812218473e-14,1.851145276958985e-05,0.9999814885472136,6.531447830945526e-17
23112.5,2.6717880730041475e-15,8922.598845124438,0.010000000000000002,0.0005000000000000001,1.931668642456987e-10,0.012417909217268609,0.987581951876293,1.3871327136740722e-07,1.5947043060604517e-14,1.850037436768338e-05,0.9999814996256164,4.886668736733556e-17
23362.5,2.3908482225122977e-15,8939.641956655312,0.010000000000000002,0.0005000000000000001,1.6124908304117452e-10,0.01141881330034865,0.988581029126097,1.5741230527574022e-07,1.346740179399513e-14,1.7021525140132675e-05,0.9999829784748463,5.780630378464802e-17
23612.5,2.1394493376351443e-15,8895.998940182813,0.010000000000000002,0.0005000000000000001,1.594946836851514e-10,0.011736337993845918,0.9882635246231171,1.372235423832769e-07,1.2720742056226738e-14,1.6918320433404585e-05,0.9999830816795539,4.509467245528031e-17
23862.5,1.9144851710819647e-15,8868.424211293988,0.010000000000000002,0.0005000000000000001,1.481972000431529e-10,0.011579122364144689,0.9884207477327037,1.2975495444594033e-07,1.1466622964530527e-14,1.6311778009531694e-05,0.9999836882219789,3.970990888103731e-17
24112.5,1.713176099016276e-15,8868.868454576228,0.010000000000000002,0.0005000000000000001,1.2822562796421099e-10,0.010901420683677554,0.989098441202048,1.379860487573473e-07,9.881761412528744e-15,1.5234820987889907e-05,0.9999847651790021,4.2225620068815305e-17
24362.5,1.5330347764364953e-15,8845.948323835113,0.010000000000000002,0.0005000000000000001,1.1898721790281644e-10,0.010745445170145163,0.9892544226626685,1.3204819923774304e-07,8.929583496494184e-15,1.4696268900462294e-05,0.9999853037310906,3.806689871229925e-17
24612.5,1.3718354039104368e-15,8848.808216240446,0.010000000000000002,0.0005000000000000001,1.0231529861966399e-10,0.010075144051674426,0.9899247139981826,1.4184782780228822e-07,7.663441794542896e-15,1.3685598419430395e-05,0.9999863144015729,4.1143748395634725e-17
24862.5,1.2275862259280359e-15,8853.708670122418,0.010000000000000002,0.0005000000000000001,8.712136419678084e-11,0.009386061423574009,0.9906137843358908,1.5415341388970174e-07,6.5254823115956085e-15,1.2680864446802698e-05,0.9999873191355467,4.522479178107165e-17
25112.5,1.0985049210660464e-15,8818.63068383143,0.010000000000000002,0.0005000000000000001,8.313593254500118e-11,0.009423609119786595,0.9905762504046007,1.4039247663052035e-07,5.994625675666905e-15,1.2380585831931014e-05,0.9999876194141619,3.7599231686002837e-17
25362.5,9.829965798891737e-16,8806.325126099866,0.010000000000000002,0.0005000000000000001,7.407883520670628e-11,0.009045055789655301,0.9909548024153073,1.4172095858045215e-07,5.255170333285243e-15,1.1708224313724773e-05,0.999988291775681,3.67275639604403e-17
25612.5,8.796339984859442e-16,8804.074036296483,0.010000000000000002,0.0005000000000000001,6.394697074134018e-11,0.008502648963029425,0.9914972010893269,1.4988369660034466e-07,4.5062922055465115e-15,1.0908316521301597e-05,0.9999890916834742,3.8575277053427126e-17
25862.5,7.871400441490932e-16,8759.56586940568,0.010000000000000002,0.0005000000000000001,6.288535681692631e-11,0.008707161705250831,0.9912927077623248,1.3046953902889256e-07,4.2259520085060935e-15,1.0800167347836133e-05,0.9999891998326479,2.987761028098547e-17
26112.5,7.043718753134748e-16,8744.63446119091,0.010000000000000002,0.0005000000000000001,5.666259386459226e-11,0.008418640405474414,0.9915812297579437,1.297799194127074e-07,3.73520442994935e-15,1.0268119013657135e-05,0.9999897318809826,2.8549607205350683e-17
26362.5,6.303068207753985e-16,8725.095842265458,0.010000000000000002,0.0005000000000000001,5.152132872170905e-11,0.008188644160633385,0.9918112290000974,1.267877480367157e-07,3.317378676942858e-15,9.799087529007626e-06,0.9999902009124677,2.6467264373517833e-17
26612.5,5.640297437190854e-16,8739.53204708625,0.010000000000000002,0.0005000000000000001,4.202028985867056e-11,0.007415770289694202,0.992584084315683,1.4535260247126695e-07,2.7315573851739886e-15,8.885176834720043e-06,0.9999911148231625,3.148443895710659e-17
26862.5,5.047217344220648e-16,8716.117655507633,0.010000000000000002,0.0005000000000000001,3.834436854422092e-11,0.007230472726615733,0.9927693869837558,1.4025128406055627e-07,2.4265286921485e-15,8.4871816520532e-06,0.9999915128183455,2.853463945461238e-17
27112.5,4.516499919282499e-16,8703.818870168223,0.010000000000000002,0.0005000000000000001,3.3926820333743007e-11,0.006908060163100531,0.9930917976769595,1.421260130433048e-07,2.112092518010399e-15,7.992833272679155e-06,0.9999920071667252,2.796316182969674e-17
27362.5,4.0415876966813294e-16,8684.253481436215,0.010000000000000002,0.0005000000000000001,3.0844576752778164e-11,0.0067187357818481366,0.9932811254149521,1.3877235527813037e-07,1.875089617129512e-15,7.626005430593947e-06,0.9999923739945675,2.5895927450049678e-17
27612.5,3.6166127315155164e-16,8662.418172699687,0.010000000000000002,0.0005000000000000001,2.7922595746368913e-11,0.00651674073935317,0.993483124163506,1.3506921812300176e-07,1.6549602719550394e-15,7.254923505037772e-06,0.9999927450764934,2.3756603326805868e-17
27862.5,3.2363240962210097e-16,8643.852576828662,0.010000000000000002,0.0005000000000000001,2.510910168024538e-11,0.006292963309331369,0.9937069035220718,1.3314348774380254e-07,1.4551577271523943e-15,6.881997481467645e-06,0.999993118002517,2.2260409410740623e-17
28112.5,2.896023000890045e-16,8651.953307669755,0.010000000000000002,0.0005000000000000001,2.080384127143499e-11,0.0057580280261383615,0.9942418233359678,1.4861708993842928e-07,1.2097688590455964e-15,6.2828484045852575e-06,0.9999937171515941,2.537045096712657e-17
28362.5,2.5915047357208356e-16,8662.171603011142,0.010000000000000002,0.0005000000000000001,1.7169867174522325e-11,0.005254845521565055,0.9947449872500249,1.6721124030167676e-07,1.0036024627608457e-15,5.725971446353128e-06,0.9999942740285527,2.9310333708716885e-17
28612.5,2.319006718247571e-16,8653.465903399354,0.010000000000000002,0.0005000000000000001,1.4973773930805313e-11,0.004972930510527498,0.9950268968711051,1.7260339364051334e-07,8.6392297423449e-16,5.3535274942203536e-06,0.9999946464725049,2.9532560646833375e-17
28862.5,2.0751620034302264e-16,8630.589109130884,0.010000000000000002,0.0005000000000000001,1.3610431153000984e-11,0.004836275115047806,0.9951635578728043,1.669985373573496e-07,7.646539082570391e-16,5.102529555060121e-06,0.9999948974704442,2.684651400903888e-17
29112.5,1.856957682181596e-16,8619.762391070504,0.010000000000000002,0.0005000000000000001,1.1979744240780745e-11,0.004604627556122793,0.99539520210094,1.703309573071475e-07,6.627838900281063e-16,4.791973485214311e-06,0.9999952080265141,2.6570808880554013e-17
29362.5,1.6616976543099967e-16,8600.847203845424,0.010000000000000002,0.0005000000000000001,1.0814845025286237e-11,0.0044578094788556245,0.9955420233099421,1.672003873457839e-07,5.8456949475393e-16,4.554113345075259e-06,0.9999954458866543,2.4758730580875914e-17
29612.5,1.4869693159056714e-16,8600.209116968832,0.010000000000000002,0.0005000000000000001,9.18684401969352e-12,0.00414617355720715,0.9958536470807295,1.7935287646217887e-07,4.93946872505996e-16,4.204671775517083e-06,0.9999957953282239,2.6490742472963246e-17
29862.5,1.3306137495651124e-16,8591.762448775553,0.010000000000000002,0.0005000000000000001,7.999235535879981e-12,0.003919613903909962,0.9960802007155609,1.8537252992754037e-07,4.2455384041134493e-16,3.927413816542395e-06,0.999996072586183,2.6736917528997456e-17
30112.5,1.1906990491282231e-16,8538.670688767479,0.010000000000000002,0.0005000000000000001,8.010542956016274e-12,0.004063220885641041,0.9959366241306714,1.5497567713950078e-07,4.0179263038326086e-16,3.918232266408799e-06,0.9999960817677332,1.9313152697558716e-17
30362.5,1.0654964493326699e-16,8516.05286387176,0.010000000000000002,0.0005000000000000001,7.269928464042958e-12,0.0039476345330043015,0.9960522155059197,1.499538060288194e-07,3.550362866936731e-16,3.7311389308797607e-06,0.9999962688610687,1.754194310097955e-17
30612.5,9.534589654470015e-17,8490.55871196309,0.010000000000000002,0.0005000000000000001,6.688087746748871e-12,0.0038697378341505627,0.9961301195422003,1.4261696105169575e-07,3.1698008102899313e-16,3.5767560793623194e-06,0.9999964232439202,1.5530590271566705e-17
30862.5,8.532022789570408e-17,8477.780557059667,0.010000000000000002,0.0005000000000000001,5.890186547289533e-12,0.003685960747966869,0.9963138947495408,1.4449660207752004e-07,2.7439729905345687e-16,3.358203071405338e-06,0.9999966417969283,1.5172540269541658e-17
31112.5,7.63487633131863e-17,8466.7498449046,0.010000000000000002,0.0005000000000000001,5.155431593144449e-12,0.0034966075859430546,0.9965032447186734,1.476902281620606e-07,2.3647714973102483e-16,3.1436002290605685e-06,0.9999968563997707,1.502529067383362e-17
31362.5,6.832065271295936e-17,8463.081729328254,0.010000000000000002,0.0005000000000000001,4.391405331766312e-12,0.003258175721048618,0.9967416674575906,1.5681696926287992e-07,1.9983574794399723e-16,2.904475950559799e-06,0.9999970955240493,1.577950216138356e-17
31612.5,6.113670195255989e-17,8441.84990448188,0.010000000000000002,0.0005000000000000001,3.977634581173918e-12,0.0031613986394133558,0.9968384490240146,1.523325943616359e-07,1.7639490831055053e-16,2.7634100127101033e-06,0.9999972365899872,1.4429192877430304e-17
31862.5,5.4708147203153835e-17,8422.640946510519,0.010000000000000002,0.0005000000000000001,3.5777903192306196e-12,0.0030534303097010267,0.9969464202353834,1.4945133769687517e-07,1.5492718798177444e-16,2.6204077396605597e-06,0.9999973795922601,1.3398636541407543e-17
32112.5,4.895555819684887e-17,8413.039583026777,0.010000000000000002,0.0005000000000000001,3.108781489849204e-12,0.002882743092429633,0.9971171028690917,1.5403536981965386e-07,1.3274357520585368e-16,2.4439255118301146e-06,0.999997556074488,1.3429535999334676e-17
