velocity,density,temperature,si,ca,si0,si1,si2,si3,ca0,ca1,ca2,ca3
13687.5,1.8209667120681525e-13,12970.162812739007,0.5,0.0,2.991817887091601e-13,4.5354180304750615e-05,0.96222412573512,0.03773050616762358,,,,
13812.5,1.6294911526822446e-13,12294.766268475423,0.5,0.0,1.0140593306308957e-12,0.00010847100991181532,0.9925959197251206,0.007295608982290248,,,,
14062.5,1.4581493440119145e-13,11578.644349871383,0.050890585241730284,0.0005089058524173028,3.967597987463135e-12,0.00028017388300908755,0.9986590820036518,0.0010607441064019237,3.633360272972247e-15,2.3560393499690966e-06,0.9999976438909269,6.971947490433874e-11
14312.5,1.3048242121121783e-13,11482.035142037945,0.050890585241730284,0.0005089058524173028,4.840187756579814e-12,0.000330796979533814,0.9988917323702644,0.0007774706439191996,4.093089316481968e-15,2.6333067809617554e-06,0.9999973666491978,4.4017160865630005e-11
14562.5,1.1676212944208938e-13,11370.417017147196,0.050890585241730284,0.0005089058524173028,6.172275648743052e-12,0.00040209384225779217,0.9990583793411778,0.0005395268097751097,4.763351535933345e-15,3.006469498084454e-06,0.9999969935048617,2.5635449492129824e-11
14812.5,1.0448453320606487e-13,11299.521770122341,0.050890585241730284,0.0005089058524173028,7.18174656363931e-12,0.0004598383321966452,0.9991178105134829,0.0004223511467885663,5.210386530566803e-15,3.287470023055147e-06,0.999996712512057,1.7914795135271894e-11
15062.5,9.349793234718112e-14,11240.37044067477,0.050890585241730284,0.0005089058524173028,8.162042259095848e-12,0.0005176801435218907,0.999140774222346,0.00034154562575543576,5.613838313894803e-15,3.5553508409464046e-06,0.9999964446359922,1.3161183033277823e-11
15312.5,8.366657805665178e-14,11105.026062382763,0.050890585241730284,0.0005089058524173028,1.0490146557744659e-11,0.0006325629104746319,0.9991420980242999,0.00022533905465483783,6.475955180851596e-15,4.041853824866469e-06,0.9999959581392087,6.959989943848075e-12
15562.5,7.486899558074395e-14,11009.413465031448,0.050890585241730284,0.0005089058524173028,1.2615000859617507e-11,0.000739348166109656,0.9990957428109511,0.0001649090102856496,7.188693979456958e-15,4.4663425023007875e-06,0.9999955336531496,4.340847560268172e-12
15812.5,6.69964832967591e-14,10878.482775070077,0.050890585241730284,0.0005089058524173028,1.533201416098844e-11,0.000870801779532393,0.9990164893236977,0.00011270888142253775,7.86854297445873e-15,4.911739468685271e-06,0.9999950882581483,2.375073199921109e-12
16062.5,5.995176961192406e-14,10861.044083483876,0.050890585241730284,0.0005089058524173028,1.6233908256107004e-11,0.000935011477083616,0.9989633026247997,0.00010168588187040488,8.141279941726396e-15,5.148910221906455e-06,0.9999948510876936,2.076371848128185e-12
16312.5,5.3647811090035056e-14,10770.663447189678,0.050890585241730284,0.0005089058524173028,1.893790767022503e-11,0.0010711113123388575,0.9988528228833901,7.606578532687849e-05,8.799103445657046e-15,5.588968565875828e-06,0.9999944110300987,1.32665874963442e-12
16562.5,4.800671695568517e-14,10720.44575258562,0.050890585241730284,0.0005089058524173028,2.0868693026746096e-11,0.001181239873756065,0.9987556135698005,6.314653557072844e-05,9.248984224783398e-15,5.93455441413872e-06,0.9999940654445696,1.0070632547086669e-12
16812.5,4.295878668740975e-14,10574.373954706323,0.050890585241730284,0.0005089058524173028,2.6569377867600022e-11,0.00143404954306588,0.9985256774482562,4.0272982107156644e-05,1.0455421917171461e-14,6.661690336717471e-06,0.9999933383091585,4.944103571454155e-13
17062.5,3.844164880839298e-14,10472.09021441968,0.050890585241730284,0.0005089058524173028,3.180275130569609e-11,0.00167072085339483,0.9983005323353294,2.874677947259463e-05,1.1468152487274505e-14,7.302191964303811e-06,0.9999926978077317,2.9243693136463415e-13
17312.5,3.4399490233762105e-14,10400.60005393153,0.050890585241730284,0.0005089058524173028,3.528643484793574e-11,0.001851444038681049,0.9981258138480703,2.2742077961770306e-05,1.1944689660342754e-14,7.726506925513834e-06,0.9999922734928601,2.0237416209588272e-13
17562.5,3.0782366652398595e-14,10273.836028686894,0.050890585241730284,0.0005089058524173028,4.321958705397795e-11,0.0021904967705236905,0.9977943208173816,1.5182368874731402e-05,1.3141708347680703e-14,8.511018073995456e-06,0.9999914889818067,1.0620683694004265e-13
17812.5,2.7545585422446264e-14,10130.830265442444,0.050890585241730284,0.0005089058524173028,5.551160987558367e-11,0.002673738900427533,0.9973167967730696,9.464270991279993e-06,1.492998294032866e-14,9.580118249269112e-06,0.9999904198816856,5.011509637992872e-14
18062.5,2.464915335566515e-14,10015.626753962562,0.050890585241730284,0.0005089058524173028,6.947172981661934e-11,0.003206942251192666,0.9967867683066468,6.289372688810164e-06,1.686491206242938e-14,1.0705532685374936e-05,0.9999892944672714,2.645235482917809e-14
18312.5,2.2057282567535988e-14,9811.076435226129,0.050890585241730284,0.0005089058524173028,1.0699972593460944e-10,0.004408972353655628,0.9955880043732873,3.0231660573861574e-06,2.1679354222392336e-14,1.3092993712809922e-05,0.9999869070062573,8.346346992612662e-15
18562.5,1.973794828747372e-14,9644.990264638105,0.050890585241730284,0.0005089058524173028,1.5397286988401604e-10,0.005794481197843703,0.9942038985656916,1.6200824917771378e-06,2.6798506643257532e-14,1.5562113237800583e-05,0.9999844378867324,3.1368245484039055e-15
18812.5,1.7662493165517183e-14,9318.914924634631,0.050890585241730284,0.0005089058524173028,3.417349466744999e-10,0.010118270599627858,0.9898812801336938,4.489249434835348e-07,4.375524758121509e-14,2.242340893690484e-05,0.9999775765910189,4.1848107784806555e-16
19062.5,1.5805273186368752e-14,9065.880171969035,0.010000000000000002,0.0005000000000000001,6.711240109077604e-10,0.016214371658674846,0.9837854747367625,1.5293343863649363e-07,6.690358757582037e-14,3.0687046262564776e-05,0.9999693129536704,7.814491880115195e-17
19312.5,1.4143340815749032e-14,9011.257815793191,0.010000000000000002,0.0005000000000000001,7.265877677204432e-10,0.017669262420783843,0.9823306144031915,1.2244943687032194e-07,6.850637414358284e-14,3.206227377726847e-05,0.9999679377261542,5.4691836391082303e-17
19562.5,1.2656161464070822e-14,8985.668810624597,0.010000000000000002,0.0005000000000000001,7.112513582556205e-10,0.01802914334914096,0.9819707434135438,1.1252606390060512e-07,6.52877713302476e-14,3.193641795019402e-05,0.9999680635819845,4.7136527733344566e-17
19812.5,1.1325359764099596e-14,8953.293821040723,0.010000000000000002,0.0005000000000000001,7.146791267138914e-10,0.0187130585396613,0.9812868408824821,9.986317750435758e-08,6.342066693386825e-14,3.221143146888094e-05,0.9999677885684676,3.8563803899887594e-17
20062.5,1.0134492527644325e-14,8926.753979443632,0.010000000000000002,0.0005000000000000001,7.041934934359131e-10,0.01917642960974225,0.9808234786241481,9.106191616997438e-08,6.075467757814917e-14,3.2187136580097996e-05,0.9999678128633591,3.28758673779558e-17
20312.5,9.068845575966058e-15,8912.769280389424,0.010000000000000002,0.0005000000000000001,6.653182163171104e-10,0.019120092449560876,0.9808798187716047,8.811351618907106e-08,5.650501962234157e-14,3.153185086566436e-05,0.9999684681490778,3.068125043843092e-17
20562.5,8.115251933570281e-15,8891.11343163194,0.010000000000000002,0.0005000000000000001,6.350420052960578e-10,0.019193128925636137,0.9808067873800574,8.305926444274302e-08,5.2668883322627554e-14,3.09757422073433e-05,0.99996902425774,2.7353397157312162e-17
20812.5,7.261929139012919e-15,8897.79350264949,0.010000000000000002,0.0005000000000000001,5.532274062922247e-10,0.01815089487462174,0.9818490151784908,8.93936601744795e-08,4.609631764737343e-14,2.9163806113826215e-05,0.9999708361938401,2.9901638977341945e-17
21062.5,6.498333662556294e-15,8857.482418899024,0.010000000000000002,0.0005000000000000001,5.587317997866877e-10,0.018905682307285347,0.9810942397630532,7.737092970475644e-08,4.4600816736859035e-14,2.938939111327316e-05,0.9999706106088421,2.3340555260537556e-17
21312.5,5.8150306318814175e-15,8839.570713642463,0.010000000000000002,0.0005000000000000001,5.242427838682573e-10,0.018767802181867972,0.9812321228607899,7.443309938032885e-08,4.09986694186719e-14,2.861451354799049e-05,0.999971385486411,2.1424958860815962e-17
21562.5,5.203577256206519e-15,8814.008659760722,0.010000000000000002,0.0005000000000000001,4.970889519761075e-10,0.018760859762184702,0.9812390700187051,6.972202128079328e-08,3.7789449006741707e-14,2.7946226858913284e-05,0.9999720537731033,1.8771386686045667e-17
21812.5,4.656418508417915e-15,8780.9785754182,0.010000000000000002,0.0005000000000000001,4.907915870100158e-10,0.019254650279412738,0.980745286922213,6.230758263934409e-08,3.5985658069276596e-14,2.7861120527495773e-05,0.9999721388794366,1.5386922647104118e-17
22062.5,4.1667937762768275e-15,8755.237913814113,0.010000000000000002,0.0005000000000000001,4.6499000337087733e-10,0.01923777150565016,0.9807621697114515,5.831790835938033e-08,3.312439785269995e-14,2.7190333217328173e-05,0.9999728096667495,1.3452252777180974e-17
22312.5,3.728653329298425e-15,8756.049882571915,0.010000000000000002,0.0005000000000000001,4.132390904098802e-10,0.018432500163801206,0.9815674384086197,6.101433998106252e-08,2.9372241522444105e-14,2.5823318705573342e-05,0.9999741766812651,1.408569553672717e-17
22562.5,3.336583569180362e-15,8730.39654556823,0.010000000000000002,0.0005000000000000001,3.9582211185464453e-10,0.018547897201608005,0.9814520457331743,5.666939547726734e-08,2.7325551661518533e-14,2.5357941414867192e-05,0.9999746420585578,1.221922232814952e-17
22812.5,2.985740140185964e-15,8714.655879919086,0.010000000000000002,0.0005000000000000001,3.614706969616548e-10,0.018092357071869118,0.9819075867980738,5.5768586352876826e-08,2.4483021588491714e-14,2.4310238231731982e-05,0.9999756897617439,1.1521981713199411e-17
23062.5,2.6717880730041475e-15,8729.341987621903,0.010000000000000002,0.0005000000000000001,3.020195462865101e-10,0.01665084037381619,0.9833490962644676,6.305969666093897e-08,2.0693545836450376e-14,2.2385728868536828e-05,0.9999776142711108,1.352134630846021e-17
23312.5,2.3908482225122977e-15,8697.362437150055,0.010000000000000002,0.0005000000000000001,2.8958620226164353e-10,0.016768097194270904,0.9832318449594842,5.755665858800497e-08,1.914665999922908e-14,2.1939858059232226e-05,0.9999780601419217,1.1330036468796936e-17
23562.5,2.1394493376351443e-15,8698.829171803065,0.010000000000000002,0.0005000000000000001,2.511952389524052e-10,0.015814800665226433,0.9841851377746854,6.130889287111775e-08,1.6574913340012487e-14,2.054204050794391e-05,0.9999794579594755,1.209898126710904e-17
23812.5,1.9144851710819647e-15,8660.537436231363,0.010000000000000002,0.0005000000000000001,2.446901982172148e-10,0.0160922220259461,0.9839077233044868,5.44248768301658e-08,1.547825374068867e-14,2.0268418222765396e-05,0.9999797315817617,9.690061761009486e-18
24062.5,1.713176099016276e-15,8679.290208970411,0.010000000000000002,0.0005000000000000001,2.0064531367458944e-10,0.014628854422479819,0.9853710823777996,6.299907534435206e-08,1.288838485846798e-14,1.848467832266115e-05,0.9999815153216645,1.1774300034308836e-17
24312.5,1.5330347764364953e-15,8635.11359412087,0.010000000000000002,0.0005000000000000001,1.9763000097914423e-10,0.01499479757382785,0.9850051475948435,5.463369871921451e-08,1.2097581098676853e-14,1.8315676658703577e-05,0.9999816843233292,9.063562140018783e-18
24562.5,1.3718354039104368e-15,8624.120841681668,0.010000000000000002,0.0005000000000000001,1.7636188266724378e-10,0.014407750638724912,0.9855921939455948,5.52393182727783e-08,1.0637604286716332e-14,1.734996488537336e-05,0.999982650035104,8.885691976546638e-18
24812.5,1.2275862259280359e-15,8602.906339054172,0.010000000000000002,0.0005000000000000001,1.6385640388727103e-10,0.014213430361471347,0.9857865165861093,5.288856292624072e-08,9.634570478963307e-15,1.6757079722681953e-05,0.9999832429202677,8.024466121760237e-18
25062.5,1.0985049210660464e-15,8589.378969816371,0.010000000000000002,0.0005000000000000001,1.4842270238029715e-10,0.013790717768655874,0.9862092295189011,5.256402038869432e-08,8.573677443879658e-15,1.5993059838117996e-05,0.9999840069401534,7.678721109312109e-18
25312.5,9.829965798891737e-16,8582.381374196017,0.010000000000000002,0.0005000000000000001,1.3067680898192067e-10,0.01313425835828755,0.9868656873274685,5.4183567173290264e-08,7.466557324433786e-15,1.5051871532908437e-05,0.9999849481284596,7.756520146067938e-18
25562.5,8.796339984859442e-16,8546.623665317715,0.010000000000000002,0.0005000000000000001,1.2496821879886428e-10,0.01320578834027925,0.9867941626270368,4.890771577760687e-08,6.859495695848365e-15,1.4704255831904401e-05,0.9999852957441613,6.342447690955525e-18
25812.5,7.871400441490932e-16,8531.836637553239,0.010000000000000002,0.0005000000000000001,1.1269029658138244e-10,0.012775911092306965,0.9872240402287916,4.8566211215739944e-08,6.069021093971138e-15,1.3990468268535835e-05,0.9999860095317253,6.040139881302044e-18
26062.5,7.043718753134748e-16,8519.531731779554,0.010000000000000002,0.0005000000000000001,1.0048673145726553e-10,0.012269770097267658,0.9877301808894897,4.89127558142846e-08,5.3235981116431794e-15,1.3237614579030134e-05,0.9999867623854156,5.8733180963165375e-18
26312.5,6.303068207753985e-16,8522.965852935089,0.010000000000000002,0.0005000000000000001,8.572316785432974e-11,0.011446044053201756,0.9885539029112916,5.29497834919936e-08,4.538899901534203e-15,1.227775007768826e-05,0.9999877222499177,6.410994934149778e-18
26562.5,5.640297437190854e-16,8499.211660262488,0.010000000000000002,0.0005000000000000001,7.932142332673314e-11,0.011262425788829425,0.988737523714688,5.041716112538495e-08,4.082546534810484e-15,1.1817226000618309e-05,0.9999881827739953,5.709599465224296e-18
26812.5,5.047217344220648e-16,8483.770154284897,0.010000000000000002,0.0005000000000000001,7.120121115125914e-11,0.010863323184175095,0.9891366266411525,5.0103471177694115e-08,3.593002937992662e-15,1.1210517380208953e-05,0.9999887894826162,5.429513898951341e-18
27062.5,4.516499919282499e-16,8488.316176188871,0.010000000000000002,0.0005000000000000001,5.940848252629888e-11,0.009988196708751994,0.9900117480101397,5.522169986429942e-08,3.001440427292458e-15,1.0271756280992332e-05,0.999989728243716,6.053577588378066e-18
27312.5,4.0415876966813294e-16,8468.746926759615,0.010000000000000002,0.0005000000000000001,5.413862807932132e-11,0.009730051150550636,0.9902698950918963,5.3703414443095436e-08,2.6698929784522714e-15,9.814002662058726e-06,0.9999901859973352,5.568406365779963e-18
27562.5,3.6166127315155164e-16,8464.951343600515,0.010000000000000002,0.0005000000000000001,4.689246318778338e-11,0.009167689436564977,0.9908322541069253,5.640961740948178e-08,2.294143343710059e-15,9.157720292147276e-06,0.9999908422797056,5.78112656785161e-18
27812.5,3.2363240962210097e-16,8445.848826406136,0.010000000000000002,0.0005000000000000001,4.243223526862787e-11,0.008889685404233759,0.9911102593796154,5.517371865642532e-08,2.0276079655960816e-15,8.71600988457508e-06,0.9999912839901134,5.3538668590934074e-18
28062.5,2.896023000890045e-16,8421.460797112073,0.010000000000000002,0.0005000000000000001,3.916100036597495e-11,0.008732375864921265,0.9912675716259481,5.246996950343702e-08,1.8173896913956265e-15,8.373670632794717e-06,0.9999916263293654,4.748206744574539e-18
28312.5,2.5915047357208356e-16,8420.206034676223,0.010000000000000002,0.0005000000000000001,3.3255845002901054e-11,0.008121911845890405,0.991878031886088,5.623476569450066e-08,1.5357515669712627e-15,7.733642315746371e-06,0.9999922663576827,5.065881651814889e-18
28562.5,2.319006718247571e-16,8408.006924332743,0.010000000000000002,0.0005000000000000001,2.939815403319772e-11,0.007755750775002321,0.9922441922815715,5.691402806519522e-08,1.3353349882124316e-15,7.279910127903008e-06,0.9999927200898708,4.9480363334126066e-18
28812.5,2.0751620034302264e-16,8397.009924967952,0.010000000000000002,0.0005000000000000001,2.593492108930259e-11,0.007396057889221253,0.9926038842204307,5.786441318847485e-08,1.1599718778521042e-15,6.847169362108259e-06,0.9999931528306367,4.871215244093754e-18
29062.5,1.856957682181596e-16,8378.879738588374,0.010000000000000002,0.0005000000000000001,2.3454649575757333e-11,0.007168957846620905,0.9928309854140036,5.671592079630416e-08,1.0251971040918587e-15,6.515700229392296e-06,0.9999934842997696,4.529586184849916e-18
29312.5,1.6616976543099967e-16,8361.19340473433,0.010000000000000002,0.0005000000000000001,2.1113093838859376e-11,0.006927734765434433,0.9930722093917997,5.582165277276923e-08,9.023860936746352e-16,6.1850176019521056e-06,0.9999938149823971,4.23395925884704e-18
29562.5,1.4869693159056714e-16,8353.002684677602,0.010000000000000002,0.0005000000000000001,1.8450723134261503e-11,0.006565490904807019,0.9934344515362223,5.7540519958364735e-08,7.786587776403424e-16,5.7911330619860115e-06,0.9999942088669374,4.258965748897244e-18
29812.5,1.3306137495651124e-16,8346.98164902244,0.010000000000000002,0.0005000000000000001,1.594822010237295e-11,0.00617756463096093,0.993822375242057,6.011103380533492e-08,6.661841217997943e-16,5.3927875599598295e-06,0.9999946072124394,4.36898566898184e-18
30062.5,1.1906990491282231e-16,8320.020099782014,0.010000000000000002,0.0005000000000000001,1.4793942339080932e-11,0.00608883430636931,0.9939111092149654,5.6463871438818975e-08,5.983646920907721e-16,5.190845252954388e-06,0.9999948091547465,3.792744698607468e-18
30312.5,1.0654964493326699e-16,8312.182815371516,0.010000000000000002,0.0005000000000000001,1.2836679961400364e-11,0.005743610286817146,0.9942563311769533,5.85233928885565e-08,5.129555580922851e-16,4.841447687519781e-06,0.999995158552312,3.839454181149847e-18
30562.5,9.534589654470015e-17,8298.151424529042,0.010000000000000002,0.0005000000000000001,1.140080092000119e-11,0.005501487330475717,0.9944984539830637,5.867505982048471e-08,4.470941556818978e-16,4.5658801357735175e-06,0.9999954341198638,3.692228913765552e-18
30812.5,8.532022789570408e-17,8283.286259296146,0.010000000000000002,0.0005000000000000001,1.0097023558952983e-11,0.005259964145129609,0.9947399770522982,5.879247508099073e-08,3.8836868244547234e-16,4.298398180107593e-06,0.9999957016018195,3.539514365874694e-18
31062.5,7.63487633131863e-17,8268.004181013473,0.010000000000000002,0.0005000000000000001,8.999101989792089e-12,0.0050498791767132015,0.9949500622354945,5.8578793102880544e-08,3.392265794314608e-16,4.060024347750611e-06,0.9999959399756518,3.3693505418055865e-18
31312.5,6.832065271295936e-17,8249.829804976942,0.010000000000000002,0.0005000000000000001,8.107057677978639e-12,0.004882502168306513,0.9951174403640597,5.745952678119283e-08,2.985493415128035e-16,3.854406754813483e-06,0.9999961455932449,3.1301978533936697e-18
31562.5,6.113670195255989e-17,8238.985262024264,0.010000000000000002,0.0005000000000000001,7.100391929290993e-12,0.0046339737143554,0.995365967632589,5.864595514055941e-08,2.574743591031797e-16,3.610113761089793e-06,0.9999963898862386,3.091703726625131e-18
31812.5,5.4708147203153835e-17,8225.963228580507,0.010000000000000002,0.0005000000000000001,6.272430662235594e-12,0.00442301729342989,0.9955769235658817,5.913441599229007e-08,2.2342492427036923e-16,3.395212180295568e-06,0.9999966047878195,2.9971346667046173e-18
32062.5,4.895555819684887e-17,8211.954850063168,0.010000000000000002,0.0005000000000000001,5.5587591686765095e-12,0.004230558080696382,0.9957693825916962,5.932204860870855e-08,1.9428862835834449e-16,3.197802080200658e-06,0.9999968021979195,2.8817872949619512e-18
32312.5,4.3807856798098586e-17,8208.220975486383,0.010000000000000002,0.0005000000000000001,4.734461927913383e-12,0.003942121506889761,0.996057815537777,6.295059893285576e-08,1.6419839946482863e-16,2.9550858450753204e-06,0.9999970449141548,3.0221639252531538e-18
