velocity,density,temperature,si,ca,si0,si1,si2,si3,ca0,ca1,ca2,ca3
13412.5,2.0349418657487557e-13,13266.276724978055,0.5,0.0,2.3140736856901776e-13,3.617509197063682e-05,0.9371393114942287,0.0628244632326009,,,,
13587.5,1.8209667120681525e-13,12880.644854484315,0.5,0.0,4.960850207968647e-13,6.384143928199109e-05,0.9752338554440678,0.024702297665249034,,,,
13837.5,1.6294911526822446e-13,11859.688037354614,0.5,0.0,2.8673370326774103e-12,0.00021748208981182488,0.997741984652655,0.0020405332401144914,,,,
14087.5,1.4581493440119145e-13,11098.405471515574,0.04113110539845759,0.0005141388174807199,1.3202054382768019e-11,0.0006218564743983008,0.999149549733086,0.00022859377923116998,8.39284983109737e-15,4.175108554558158e-06,0.9999958248844181,7.018954714107137e-12
14337.5,1.3048242121121783e-13,11073.3890498723,0.04113110539845759,0.0005141388174807199,1.5114176283870457e-11,0.0007025033887636816,0.9991035986903656,0.00019389790569878718,9.324489284213894e-15,4.584510387240959e-06,0.9999954154838994,5.70402973116119e-12
14587.5,1.1676212944208938e-13,10987.083813034822,0.04113110539845759,0.0005141388174807199,1.836975242841287e-11,0.0008265444138460241,0.9990304759255549,0.00014297964220066946,1.0517585554204635e-14,5.1154483472876764e-06,0.9999948845480044,3.637706396407359e-12
14837.5,1.0448453320606487e-13,10896.122584059513,0.04113110539845759,0.0005141388174807199,2.16307291580444e-11,0.0009527200997639308,0.9989406947485082,0.00010658513008291937,1.1465713588221243e-14,5.590586032004374e-06,0.9999944094116345,2.3220383659603178e-12
15087.5,9.349793234718112e-14,10843.108762383072,0.04113110539845759,0.0005141388174807199,2.4443149898007294e-11,0.0010680317903707945,0.9988451412883177,8.682689685934723e-05,1.2334194239481715e-14,6.030661848934301e-06,0.9999939693364138,1.7249243386020893e-12
15337.5,8.366657805665178e-14,10777.607076078208,0.04113110539845759,0.0005141388174807199,2.765296855040763e-11,0.0011985602923270673,0.9987323133382273,6.912634178753397e-05,1.3164976660480846e-14,6.481858230508087e-06,0.9999935181405321,1.2244016341252451e-12
15587.5,7.486899558074395e-14,10637.271009164044,0.04113110539845759,0.0005141388174807199,3.587411581758194e-11,0.0014728716154149273,0.998483035020458,4.4093328251095785e-05,1.5199168952286015e-14,7.373462578334906e-06,0.9999926265367977,6.088883308474083e-13
15837.5,6.69964832967591e-14,10574.40271500793,0.04113110539845759,0.0005141388174807199,4.1331289332322385e-11,0.0016723332382730532,0.9982929758943884,3.4690826006338464e-05,1.6533480274511274e-14,8.009016065671675e-06,0.9999919909834906,4.272523005908586e-13
16087.5,5.995176961192406e-14,10494.724119022487,0.04113110539845759,0.0005141388174807199,4.808674746561243e-11,0.0019116370952167582,0.9980620855597133,2.627729698249715e-05,1.7930188350551188e-14,8.699307881851052e-06,0.9999913006918207,2.7954678841115037e-13
16337.5,5.3647811090035056e-14,10409.914366389841,0.04113110539845759,0.0005141388174807199,5.653828507121127e-11,0.0022003868824455285,0.997780074490518,1.953857049791833e-05,1.9562390844736932e-14,9.487510014325139e-06,0.9999905124897887,1.7745203596518794e-13
16587.5,4.800671695568517e-14,10310.931996758989,0.04113110539845759,0.0005141388174807199,6.618099638319043e-11,0.0025261530751070627,0.9974596892460993,1.415761261235714e-05,2.101704414853831e-14,1.0269259981779804e-05,0.9999897307398906,1.0661072034990556e-13
16837.5,4.295878668740975e-14,10192.714063072131,0.04113110539845759,0.0005141388174807199,8.374893279545071e-11,0.0030520955329735103,0.9969385454111586,9.358972118956894e-06,2.3980341951974338e-14,1.1554353044957387e-05,0.999988445646875,5.6087217388306986e-14
17087.5,3.844164880839298e-14,10106.886799164373,0.04113110539845759,0.0005141388174807199,9.828965040601275e-11,0.003508716479273792,0.9964843955855532,6.887836883226692e-06,2.6049130099847493e-14,1.2563941784960927e-05,0.9999874360581542,3.484878277939387e-14
17337.5,3.4399490233762105e-14,10009.670560318644,0.04113110539845759,0.0005141388174807199,1.1823063593703788e-10,0.004099621018701862,0.9958955165014002,4.862361667460625e-06,2.870699441433891e-14,1.3801191863566468e-05,0.9999861988080876,2.0242854030514974e-14
17587.5,3.0782366652398595e-14,9929.040607111214,0.04113110539845759,0.0005141388174807199,1.3415478519324233e-10,0.004609591349148345,0.9953867331101675,3.6754065294325537e-06,3.026752599309826e-14,1.4726163166401967e-05,0.9999852738367904,1.2978919626456226e-14
17837.5,2.7545585422446264e-14,9802.749620908293,0.04113110539845759,0.0005141388174807199,1.736092720922343e-10,0.005650007758620246,0.9943476792157807,2.3128519897944967e-06,3.4940100950967986e-14,1.669810151681829e-05,0.999983301898442,6.281392197100123e-15
18087.5,2.464915335566515e-14,9633.183661833667,0.04113110539845759,0.0005141388174807199,2.484535367504718e-10,0.007398463694250364,0.9926003026850391,1.2333722571201611e-06,4.284018457850019e-14,1.9762611153964745e-05,0.9999802373888009,2.3310887957317036e-15
18337.5,2.2057282567535988e-14,9440.651792282373,0.04113110539845759,0.0005141388174807199,3.874308365699787e-10,0.010245652378076387,0.9897537649512357,5.822832570495357e-07,5.579899152964882e-14,2.4349908811290566e-05,0.9999756500911323,7.18375140954242e-16
18587.5,1.973794828747372e-14,9212.441209988334,0.04113110539845759,0.0005141388174807199,6.920266296633947e-10,0.015498934421425107,0.9845008383820874,2.265044608379728e-07,8.001856175053414e-14,3.1987661380088036e-05,0.9999680123385398,1.6499644337790222e-16
18837.5,1.7662493165517183e-14,8884.085430208199,0.04113110539845759,0.0005141388174807199,1.6867320656948493e-09,0.02868580411519203,0.9713141403518022,5.384627364998882e-08,1.405251584889801e-13,4.8345598384879894e-05,0.9999516544014747,1.7624907782027266e-17
19087.5,1.5805273186368752e-14,8630.008122540123,0.010000000000000002,0.0005000000000000001,3.573319323864086e-09,0.04806308458599559,0.9519368958335871,1.6007097857334962e-08,2.294068262003413e-13,6.901631080921515e-05,0.9999309836889614,2.729475198580842e-18
19337.5,1.4143340815749032e-14,8585.740701764567,0.010000000000000002,0.0005000000000000001,3.729691449739234e-09,0.05110672090698864,0.9488932620863187,1.3277001178647377e-08,2.286504664092842e-13,7.085997746747607e-05,0.9999291400223039,2.0113823526675973e-18
19587.5,1.2656161464070822e-14,8525.225466570155,0.010000000000000002,0.0005000000000000001,4.13303877637208e-09,0.056476550228455165,0.9435234355625601,1.0075945945392563e-08,2.37952149057133e-13,7.487935455461508e-05,0.9999251206452074,1.297732633985671e-18
19837.5,1.1325359764099596e-14,8494.515454679908,0.010000000000000002,0.0005000000000000001,4.216323196652411e-09,0.059160033561938455,0.9408399534374563,8.784282026437925e-09,2.3523660973126597e-13,7.629090957233259e-05,0.9999237090901925,1.0406921568204366e-18
20087.5,1.0134492527644325e-14,8473.145304477914,0.010000000000000002,0.0005000000000000001,4.101614899261713e-09,0.060108681751439345,0.9398913060194143,8.127531509472027e-09,2.2366483551235122e-13,7.582472392859393e-05,0.9999241752758478,9.07216394810493e-19
20337.5,9.068845575966058e-15,8444.326415777216,0.010000000000000002,0.0005000000000000001,4.080423080507634e-09,0.06196064702413672,0.9380393416508814,7.244558746296643e-09,2.1575160008396472e-13,7.612438354058206e-05,0.9999238756162436,7.464514702309777e-19
20587.5,8.115251933570281e-15,8408.027241485022,0.010000000000000002,0.0005000000000000001,4.109698494718035e-09,0.06438129644392035,0.9356186931831352,6.263245962226548e-09,2.0892181233308717e-13,7.672629048816591e-05,0.999923273709303,5.83126564738266e-19
20837.5,7.261929139012919e-15,8391.057140571782,0.010000000000000002,0.0005000000000000001,3.876169873076378e-09,0.06413397218523803,0.9358660179457555,5.992836489813445e-09,1.9319215989836674e-13,7.495678921612693e-05,0.9999250432105907,5.310870560443839e-19
21087.5,6.498333662556294e-15,8376.972306814176,0.010000000000000002,0.0005000000000000001,3.628678707016041e-09,0.06358179014377445,0.9364182004163604,5.811186488110539e-09,1.7782361270960681e-13,7.29841918295156e-05,0.9999270158079926,4.940336117378272e-19
21337.5,5.8150306318814175e-15,8350.169775512186,0.010000000000000002,0.0005000000000000001,3.5542492186493113e-09,0.06489445059795167,0.9351055405897623,5.258037026787146e-09,1.690214879484586e-13,7.261562454182514e-05,0.9999273843752892,4.1404410423059454e-19
21587.5,5.203577256206519e-15,8375.683282875349,0.010000000000000002,0.0005000000000000001,2.9216406911209363e-09,0.05917627295999753,0.9408237178518216,6.266540197653425e-09,1.4221748838567124e-13,6.65043881932898e-05,0.9999334956116646,5.278889758255689e-19
21837.5,4.656418508417915e-15,8339.432139094806,0.010000000000000002,0.0005000000000000001,2.913073091499446e-09,0.061100260138136235,0.9388997314987628,5.450027838967256e-09,1.3615037686500334e-13,6.658590892982591e-05,0.9999334140909341,4.1399342465042927e-19
22087.5,4.1667937762768275e-15,8338.089254157163,0.010000000000000002,0.0005000000000000001,2.618251182057937e-09,0.05900949286157594,0.9409904988797889,5.640383859343781e-09,1.218081984082109e-13,6.358628616347029e-05,0.9999364137137148,4.2566681886030035e-19
22337.5,3.728653329298425e-15,8330.780044906729,0.010000000000000002,0.0005000000000000001,2.3885201226255842e-09,0.05753899027639404,0.9424610016580595,5.677026443783597e-09,1.098930725825518e-13,6.110089746670476e-05,0.9999388991024234,4.185835145635683e-19
22587.5,3.336583569180362e-15,8291.124912942309,0.010000000000000002,0.0005000000000000001,2.3773938426284313e-09,0.05934976424052214,0.9406502284913598,4.890724184906641e-09,1.0455740734885681e-13,6.1004850145731374e-05,0.9999389951497497,3.2154301718157293e-19
22837.5,2.985740140185964e-15,8282.80939666302,0.010000000000000002,0.0005000000000000001,2.156827717474601e-09,0.057668013761734666,0.942331979154481,4.9269564929784545e-09,9.366050827517369e-14,5.839070272409833e-05,0.9999416092971823,3.1540316898641804e-19
23087.5,2.6717880730041475e-15,8281.647666429444,0.010000000000000002,0.0005000000000000001,1.9051760884648603e-09,0.05507758454541914,0.9449224083849311,5.1644735861537025e-09,8.22782430265817e-14,5.5166694729328495e-05,0.9999448333051884,3.2845779913843347e-19
23337.5,2.3908482225122977e-15,8253.413725733528,0.010000000000000002,0.0005000000000000001,1.817532297961698e-09,0.05528222162352277,0.9447177718226512,4.736293702929259e-09,7.58784129573366e-14,5.3949348081622676e-05,0.9999460506518424,2.7703336647493565e-19
23587.5,2.1394493376351443e-15,8243.495290283347,0.010000000000000002,0.0005000000000000001,1.6355918896011363e-09,0.053436711099601304,0.9465632824897026,4.775104124872273e-09,6.72689181090148e-14,5.13448237125258e-05,0.9999486551762202,2.7056624829993983e-19
23837.5,1.9144851710819647e-15,8218.039352542943,0.010000000000000002,0.0005000000000000001,1.5537359076323796e-09,0.053488480706472226,0.9465115133149544,4.424837592688121e-09,6.193934438599101e-14,5.013601853861205e-05,0.9999498639813994,2.3229049773858796e-19
24087.5,1.713176099016276e-15,8201.368617939768,0.010000000000000002,0.0005000000000000001,1.4306285005503822e-09,0.05247336936266626,0.9475266249059615,4.300743753793182e-09,5.5779254016028175e-14,4.822917508841822e-05,0.9999517708248559,2.144501817995818e-19
24337.5,1.5330347764364953e-15,8190.298567777887,0.010000000000000002,0.0005000000000000001,1.2970351835850785e-09,0.050964590494519034,0.9490354039126971,4.295748684466392e-09,4.974751242544614e-14,4.607433073303919e-05,0.9999539256692173,2.0677358283848813e-19
24587.5,1.3718354039104368e-15,8179.685110899057,0.010000000000000002,0.0005000000000000001,1.1649426157245125e-09,0.04920082189325837,0.9507991726169124,4.324886725523504e-09,4.396824660342327e-14,4.377947919145368e-05,0.9999562205207645,2.0116989634643614e-19
24837.5,1.2275862259280359e-15,8150.297164000246,0.010000000000000002,0.0005000000000000001,1.1104752399814504e-09,0.04936185700364591,0.9506381379388289,3.94704990753598e-09,4.0431784265145836e-14,4.2757851142223566e-05,0.9999572421488173,1.6790245284274682e-19
25087.5,1.0985049210660464e-15,8135.657785033682,0.010000000000000002,0.0005000000000000001,1.0002954075285071e-09,0.04774474291368915,0.952255252168961,3.917054510173094e-09,3.567954715629313e-14,4.063031425713437e-05,0.9999593696857071,1.5903181876840655e-19
25337.5,9.829965798891737e-16,8126.659936178682,0.010000000000000002,0.0005000000000000001,9.008820361266245e-10,0.046171535089434466,0.9538284600575709,3.9521125342038735e-09,3.166949617191394e-14,3.8688960080021295e-05,0.9999613110398884,1.5578375747818128e-19
25587.5,8.796339984859442e-16,8131.502176416894,0.010000000000000002,0.0005000000000000001,7.692224843414666e-10,0.04313439761218723,0.9568655973036669,4.314923420947587e-09,2.7043464178385096e-14,3.590209662428926e-05,0.9999640979033487,1.720204826762297e-19
25837.5,7.871400441490932e-16,8126.179332923048,0.010000000000000002,0.0005000000000000001,6.792400125307257e-10,0.041181698702611264,0.9588182961562005,4.461948162221311e-09,2.3624450684845444e-14,3.3840996159066065e-05,0.9999661590038174,1.745904557787422e-19
26087.5,7.043718753134748e-16,8113.3302390086,0.010000000000000002,0.0005000000000000001,6.064874386498468e-10,0.03960279365124984,0.9603972012662304,4.476032336191743e-09,2.0703318418061546e-14,3.2013818180929325e-05,0.9999679861817984,1.6804681677702838e-19
26337.5,6.303068207753985e-16,8091.464980756945,0.010000000000000002,0.0005000000000000001,5.619716715864197e-10,0.03901025974542276,0.9609897354358559,4.256749635557918e-09,1.864547731231251e-14,3.083686827017657e-05,0.9999691631317112,1.4926232018128002e-19
26587.5,5.640297437190854e-16,8071.848273789801,0.010000000000000002,0.0005000000000000001,5.17476955073067e-10,0.03827078102292923,0.961729214367454,4.092139780447573e-09,1.6725768973508738e-14,2.961951453047268e-05,0.9999703804854527,1.3488507126517994e-19
26837.5,5.047217344220648e-16,8064.154675290754,0.010000000000000002,0.0005000000000000001,4.5411866508684567e-10,0.036390619190659404,0.9636093761378742,4.2173476843305975e-09,1.4484308807556277e-14,2.7793308180614254e-05,0.9999722066918049,1.3542481379947054e-19
27087.5,4.516499919282499e-16,8052.691541668732,0.010000000000000002,0.0005000000000000001,4.0648932498134853e-10,0.03504937711759621,0.9649506182391251,4.236789398180759e-09,1.2740598736991948e-14,2.6341772888234025e-05,0.999973658227099,1.310527540353033e-19
27337.5,4.0415876966813294e-16,8039.113362509831,0.010000000000000002,0.0005000000000000001,3.639182747493466e-10,0.03376167872413214,0.966238316683961,4.227988569179488e-09,1.118406292997175e-14,2.4949300682529173e-05,0.9999750506993063,1.251452939260363e-19
27587.5,3.6166127315155164e-16,8046.927966507119,0.010000000000000002,0.0005000000000000001,3.040525404773532e-10,0.03108977622932879,0.9689102187433778,4.723240784264812e-09,9.376592747725386e-15,2.288789491817155e-05,0.9999771121050725,1.4282188731205185e-19
27837.5,3.2363240962210097e-16,8029.196374193878,0.010000000000000002,0.0005000000000000001,2.7665012862539336e-10,0.030263226015513664,0.9697367691072031,4.600633127137546e-09,8.327119297101945e-15,2.1846877021273303e-05,0.9999781531229703,1.3145146237676998e-19
28087.5,2.896023000890045e-16,7998.198593584628,0.010000000000000002,0.0005000000000000001,2.6261058315210525e-10,0.030283269959184057,0.9697167256010695,4.17713591020127e-09,7.604154709145746e-15,2.1263238167444706e-05,0.9999787367618249,1.0822257294111641e-19
28337.5,2.5915047357208356e-16,7990.318080936976,0.010000000000000002,0.0005000000000000001,2.3037132417774267e-10,0.0287843784175212,0.9712156170533892,4.29871821677554e-09,6.581177261612929e-15,1.994578334812457e-05,0.9999800542166453,1.0843019651046778e-19
28587.5,2.319006718247571e-16,7989.285479788707,0.010000000000000002,0.0005000000000000001,1.9659211171529373e-10,0.026871968834505506,0.9731280263648115,4.604090743976907e-09,5.583159902269244e-15,1.846312856881766e-05,0.9999815368714255,1.1549387387827625e-19
28837.5,2.0751620034302264e-16,8003.770695570511,0.010000000000000002,0.0005000000000000001,1.5942781145357776e-10,0.02426461457315757,0.9757353799129235,5.354491077386998e-09,4.577799054102635e-15,1.66921291682877e-05,0.9999833078708271,1.4019418646117232e-19
29087.5,1.856957682181596e-16,7988.630676390538,0.010000000000000002,0.0005000000000000001,1.4263394612701497e-10,0.023359685706824923,0.9766403088363458,5.314195356807218e-09,4.009540802412973e-15,1.5794688304865993e-05,0.9999842053116911,1.3247489315859397e-19
29337.5,1.6616976543099967e-16,7978.904168310057,0.010000000000000002,0.0005000000000000001,1.250566584636179e-10,0.0221935086730974,0.9778064857653672,5.436478738403048e-09,3.462220319067867e-15,1.4802758199173662e-05,0.9999851972417975,1.3121306661253858e-19
29587.5,1.4869693159056714e-16,7955.67077430267,0.010000000000000002,0.0005000000000000001,1.158095907512511e-10,0.021851432343997734,0.9781485624031551,5.1370375865372215e-09,3.1101388896978287e-15,1.4242701211806588e-05,0.9999857572987851,1.15066600728525e-19
29837.5,1.3306137495651124e-16,7933.729229651047,0.010000000000000002,0.0005000000000000001,1.0691183451135053e-10,0.021470766689017887,0.9785292283221702,4.881900147949847e-09,2.7886636310334835e-15,1.368507971605224e-05,0.9999863149202811,1.0185854059450474e-19
30087.5,1.1906990491282231e-16,7925.2624234415125,0.010000000000000002,0.0005000000000000001,9.35432617423765e-11,0.020370706426839226,0.9796292884617307,5.017886776183318e-09,2.4059141664802045e-15,1.2815524473305184e-05,0.9999871844755243,1.0174046691453176e-19
30337.5,1.0654964493326699e-16,7903.518744607151,0.010000000000000002,0.0005000000000000001,8.581330385042719e-11,0.019933857185810457,0.980066137938622,4.7897542398544516e-09,2.1443496655306848e-15,1.2270833550382929e-05,0.9999877291664475,9.04671869705468e-20
30587.5,9.534589654470015e-17,7894.8315246786515,0.010000000000000002,0.0005000000000000001,7.463973231575628e-11,0.01883944495072883,0.9811605500363365,4.938295047734775e-09,1.8391372357984683e-15,1.1452494272387525e-05,0.9999885475057259,9.056009795529506e-20
30837.5,8.532022789570408e-17,7872.399339051796,0.010000000000000002,0.0005000000000000001,6.895253333267357e-11,0.018519617255407683,0.9814803779974164,4.6782233133983786e-09,1.6488809190496872e-15,1.1005716536150264e-05,0.9999889942834621,7.970371463817035e-20
31087.5,7.63487633131863e-17,7874.7664040410955,0.010000000000000002,0.0005000000000000001,5.772768018311974e-11,0.017070578703875995,0.982929416114141,5.124255297404297e-09,1.3780699404955959e-15,1.0090444980820994e-05,0.9999899095550178,8.782624372450776e-20
31337.5,6.832065271295936e-17,7850.076980519593,0.010000000000000002,0.0005000000000000001,5.372493913965438e-11,0.01686216968902303,0.9831378254636438,4.793608182689825e-09,1.2414430304397055e-15,9.729652558083971e-06,0.9999902703474406,7.574787436327178e-20
31587.5,6.113670195255989e-17,7846.432580990305,0.010000000000000002,0.0005000000000000001,4.584490462205519e-11,0.015737476788427997,0.9842625180814193,5.0843078257333e-09,1.0505413912559887e-15,8.998846736244477e-06,0.9999910011532627,7.927555396174253e-20
31837.5,5.4708147203153835e-17,7836.461822781198,0.010000000000000002,0.0005000000000000001,4.027432274029684e-11,0.014969321352600302,0.9850306734261401,5.180985198645883e-09,9.084128248467182e-16,8.441640976757802e-06,0.9999915583590223,7.809483375436448e-20
32087.5,4.895555819684887e-17,7814.09346095063,0.010000000000000002,0.0005000000000000001,3.712031799833524e-11,0.01469313946964163,0.9853068555821468,4.911091280173598e-09,8.124929036596404e-16,8.101570531083397e-06,0.9999918984294681,6.871824687647141e-20
32337.5,4.3807856798098586e-17,7796.257945047341,0.010000000000000002,0.0005000000000000001,3.3487012129062515e-11,0.014221042018257869,0.9857789531571877,4.7910674835655124e-09,7.150752871195421e-16,7.693938884411966e-06,0.9999923060611149,6.313960500014829e-20
