velocity,density,temperature,si,ca,si0,si1,si2,si3,ca0,ca1,ca2,ca3
12937.5,2.541277005499972e-13,14744.75244948252,0.5,0.0,2.4415420465766863e-14,5.517545158086292e-06,0.4962344221727618,0.5037427314759826,,,,
13062.5,2.27406045894926e-13,15039.116951527227,0.5,0.0,2.2442975165735755e-14,5.139938985785491e-06,0.44428611437820004,0.5556807075862956,,,,
13312.5,2.0349418657487557e-13,14789.222331619087,0.5,0.0,4.719726915066023e-14,9.883484691164346e-06,0.5910423856273264,0.40893804071030543,,,,
13562.5,1.8209667120681525e-13,13987.061447048589,0.5,0.0,1.7702425675396508e-13,2.9618428179818343e-05,0.8631429993881724,0.13682694783887878,,,,
13812.5,1.6294911526822446e-13,12716.809408866144,0.5,0.0,1.1825398555651345e-12,0.00011828695515415522,0.9887213863687403,0.0111603257260848,,,,
14062.5,1.4581493440119145e-13,11916.758636331098,0.04113110539845759,0.0005141388174807199,4.7287920157558124e-12,0.0003112742240275777,0.9981568685986115,0.0015318571640260668,5.209690972658535e-15,2.8573135471652496e-06,0.9999971425216895,1.6475815198345773e-10
14312.5,1.3048242121121783e-13,11722.119365132548,0.04113110539845759,0.0005141388174807199,6.598815270364759e-12,0.0004023736520752006,0.9986972228190137,0.0009004035198587288,6.323462585615768e-15,3.371004169931109e-06,0.9999966289229852,7.283854990691042e-11
14562.5,1.1676212944208938e-13,11615.888075554478,0.04113110539845759,0.0005141388174807199,8.015067473532585e-12,0.00047381799135977413,0.9988715926607917,0.0006545893386697596,7.06392927476974e-15,3.7451169854739772e-06,0.9999962548378922,4.5115292441790785e-11
14812.5,1.0448453320606487e-13,11548.203516159181,0.04113110539845759,0.0005141388174807199,9.045118693507857e-12,0.0005312165304395766,0.9989413057288749,0.0005274777309363869,7.521255824023741e-15,4.022500113911181e-06,0.9999959774671212,3.2757368814843315e-11
15062.5,9.349793234718112e-14,11438.30561204265,0.04113110539845759,0.0005141388174807199,1.1023262228079236e-11,0.0006267550264869673,0.9989945138596218,0.0003787311025445851,8.405620571493456e-15,4.4676985131017715e-06,0.9999955322816442,1.9834383905413388e-11
15312.5,8.366657805665178e-14,11392.205475171082,0.04113110539845759,0.0005141388174807199,1.189875805143778e-11,0.0006821046407769515,0.9989941429744009,0.00032375237269865396,8.684025614259183e-15,4.696601169727797e-06,0.9999953033830691,1.5752652294482182e-11
15562.5,7.486899558074395e-14,11246.218926879388,0.04113110539845759,0.0005141388174807199,1.533324711832807e-11,0.0008350862094451809,0.9989540345227061,0.0002108792524337606,1.0013266628211255e-14,5.332565680410386e-06,0.9999946674261757,8.133795697219892e-12
15812.5,6.69964832967591e-14,11141.76375477564,0.04113110539845759,0.0005141388174807199,1.8388767800066278e-11,0.0009745247716610603,0.9988724929915233,0.0001529822183886074,1.1041376479673113e-14,5.8645913367133056e-06,0.9999941354036759,4.976343999933888e-12
16062.5,5.995176961192406e-14,11063.554091675807,0.04113110539845759,0.0005141388174807199,2.050240191261501e-11,0.0010837684794084582,0.9987950994699759,0.00012113203009131321,1.153676876194818e-14,6.222380069791226e-06,0.9999937776164581,3.460452664421122e-12
16312.5,5.3647811090035056e-14,10899.03405756348,0.04113110539845759,0.0005141388174807199,2.6542774156070934e-11,0.0013309144897893236,0.9985938140627851,7.5271420875685e-05,1.3177249560676477e-14,7.0348390835344485e-06,0.9999929651592733,1.6301974363584461e-12
16562.5,4.800671695568517e-14,10818.992284696777,0.04113110539845759,0.0005141388174807199,3.0238052775749246e-11,0.0015008885170525975,0.9984408701629458,5.824128975968076e-05,1.4021879000211578e-14,7.545682981922567e-06,0.9999924543159061,1.0979419170121129e-12
16812.5,4.295878668740975e-14,10729.08946324453,0.04113110539845759,0.0005141388174807199,3.4317242872140575e-11,0.0016887026870119417,0.9982669573568839,4.433992178507697e-05,1.47714720989827e-14,8.052529852749006e-06,0.9999919474694187,7.13863684308822e-13
17062.5,3.844164880839298e-14,10620.195746865616,0.04113110539845759,0.0005141388174807199,4.133118713160321e-11,0.0019756751750250635,0.9979930106050962,3.131417854670282e-05,1.625803603605913e-14,8.842435262486595e-06,0.9999911575643062,4.150850106452062e-13
17312.5,3.4399490233762105e-14,10463.850959178979,0.04113110539845759,0.0005141388174807199,5.507404907193777e-11,0.002470968375954904,0.9975101056306013,1.892593836960858e-05,1.908585412331663e-14,1.0153421227246135e-05,0.999989846578565,1.8862535617766584e-13
17562.5,3.0782366652398595e-14,10386.730023549824,0.04113110539845759,0.0005141388174807199,6.019814452430033e-11,0.0027119773332359605,0.9972730612550135,1.4961351552418811e-05,1.9521862882358644e-14,1.0626070102686181e-05,0.9999893739297486,1.290736758136989e-13
17812.5,2.7545585422446264e-14,10276.34420034402,0.04113110539845759,0.0005141388174807199,7.34751572699704e-11,0.003200198802292457,0.9967894907797735,1.031034445892634e-05,2.16797930158051e-14,1.1732659687737949e-05,0.9999882673402184,7.210945563781392e-14
18062.5,2.464915335566515e-14,10054.77399247472,0.04113110539845759,0.0005141388174807199,1.1290172732208688e-10,0.004396291187511737,0.9955988064189122,4.902280674406446e-06,2.7730586670119414e-14,1.4317239408884685e-05,0.9999856827605413,2.2236221508606312e-14
18312.5,2.2057282567535988e-14,9906.374255210816,0.04113110539845759,0.0005141388174807199,1.5009498907456395e-10,0.005486953705884943,0.9945101283366513,2.9178073688078804e-06,3.241284124839722e-14,1.6391967369107998e-05,0.9999836080325888,9.79419380450356e-15
18562.5,1.973794828747372e-14,9689.944359173334,0.04113110539845759,0.0005141388174807199,2.3978817575214917e-10,0.007725002088832136,0.9922736762540727,1.3214173068023929e-06,4.283055198280153e-14,2.040184187185558e-05,0.9999795981580824,2.815593350643026e-15
18812.5,1.7662493165517183e-14,9366.860082627083,0.04113110539845759,0.0005141388174807199,5.36300979549407e-10,0.01355086970742999,0.986448761229785,3.685264840307943e-07,7.140203611138605e-14,2.968980993558954e-05,0.9999703101899926,3.8410594882267404e-16
19062.5,1.5805273186368752e-14,9140.860536682274,0.010000000000000002,0.0005000000000000001,9.754200066594158e-10,0.020633919624622823,0.9793659378922981,1.415076590629175e-07,1.0475062758411431e-13,3.9390072474130125e-05,0.9999606099274211,8.700594736464928e-17
19312.5,1.4143340815749032e-14,9067.739720535166,0.010000000000000002,0.0005000000000000001,1.0980922269531177e-09,0.02306649654313233,0.9769333966770867,1.0568168888334479e-07,1.0963615030645032e-13,4.1815578087283174e-05,0.9999581844218031,5.445265161536736e-17
19562.5,1.2656161464070822e-14,9035.151342070623,0.010000000000000002,0.0005000000000000001,1.1065964680140825e-09,0.023986495318351276,0.9760134099406057,9.363444660094061e-08,1.067453224260238e-13,4.222628652713364e-05,0.9999577737133661,4.4525256542024607e-17
19812.5,1.1325359764099596e-14,8993.020741962064,0.010000000000000002,0.0005000000000000001,1.137645071963371e-09,0.02527104913952139,0.9747288698183929,7.990444055849917e-08,1.0503748598170864e-13,4.298348604258091e-05,0.9999570165138524,3.423444303973991e-17
20062.5,1.0134492527644325e-14,8971.520849263869,0.010000000000000002,0.0005000000000000001,1.0791643483535112e-09,0.02526644242840004,0.9747334807612407,7.573119497860927e-08,9.72651965598794e-14,4.205742926493797e-05,0.9999579425706379,3.072637514059435e-17
20312.5,9.068845575966058e-15,8911.537684244398,0.010000000000000002,0.0005000000000000001,1.1746747439690343e-09,0.027628900390909265,0.9723710390850848,5.934933115768729e-08,9.955753550033674e-14,4.396333544516787e-05,0.9999560366644553,2.0724663663555993e-17
20562.5,8.115251933570281e-15,8862.285286565355,0.010000000000000002,0.0005000000000000001,1.1895969434597567e-09,0.028829150109475163,0.9711707985806012,5.012032679127868e-08,9.578425186246609e-14,4.4228752286007045e-05,0.9999557712476181,1.5439360240660153e-17
20812.5,7.261929139012919e-15,8843.09110966687,0.010000000000000002,0.0005000000000000001,1.129821909211327e-09,0.02884675822680159,0.9711531929838293,4.7659547134248e-08,8.894682667201015e-14,4.332762312617202e-05,0.9999566723767849,1.396376095807557e-17
21062.5,6.498333662556294e-15,8815.937483809463,0.010000000000000002,0.0005000000000000001,1.1086575203514908e-09,0.029483637012633544,0.9705163184671001,4.341160889803394e-08,8.46570178949024e-14,4.3128355107695444e-05,0.9999568716448076,1.1854070598939522e-17
21312.5,5.8150306318814175e-15,8801.00324916165,0.010000000000000002,0.0005000000000000001,1.0199010876661218e-09,0.02889841657431379,0.9711015397640247,4.2641760500526335e-08,7.644269570856294e-14,4.1526711587795715e-05,0.9999584732883359,1.1186984935132305e-17
21562.5,5.203577256206519e-15,8774.84416436599,0.010000000000000002,0.0005000000000000001,9.86141215908449e-10,0.029256246325440424,0.9707437133736136,3.931480479490439e-08,7.173777246077775e-14,4.098762704000782e-05,0.9999590123728883,9.629122407625015e-18
21812.5,4.656418508417915e-15,8791.347163575703,0.010000000000000002,0.0005000000000000001,8.328673628361828e-10,0.02712092466656968,0.9728790301340552,4.4366507795450766e-08,6.127737509731125e-14,3.796401087235706e-05,0.9999620359890663,1.1315428013199671e-17
22062.5,4.1667937762768275e-15,8741.46269063951,0.010000000000000002,0.0005000000000000001,8.467005148081655e-10,0.028372138161897372,0.9716278238106746,3.7180727516212566e-08,5.908895844565118e-14,3.8251715247834596e-05,0.9999617482846931,8.323042604171618e-18
22312.5,3.728653329298425e-15,8734.990792067145,0.010000000000000002,0.0005000000000000001,7.725574514898179e-10,0.02765890425537371,0.9723410574680929,3.750397590206093e-08,5.330405312164133e-14,3.674601649902233e-05,0.9999632539834477,8.241522895728601e-18
22562.5,3.336583569180362e-15,8706.295985299881,0.010000000000000002,0.0005000000000000001,7.390654078512313e-10,0.02781096819531619,0.9721889964921718,3.4573446678804645e-08,4.935146219420087e-14,3.60013994011003e-05,0.9999639986005495,7.037056502059746e-18
22812.5,2.985740140185964e-15,8701.9925317163,0.010000000000000002,0.0005000000000000001,6.579849676021138e-10,0.02668337888494748,0.9733165847894708,3.566759677685594e-08,4.3532339435465703e-14,3.411785371597649e-05,0.9999658821462405,7.164691682704089e-18
23062.5,2.6717880730041475e-15,8696.440494546458,0.010000000000000002,0.0005000000000000001,5.913714870389244e-10,0.025758939055669793,0.9742410239202249,3.643273386879266e-08,3.870533787693022e-14,3.249072032484109e-05,0.9999675092796365,7.199577703951133e-18
23312.5,2.3908482225122977e-15,8664.991413249712,0.010000000000000002,0.0005000000000000001,5.630201589196244e-10,0.025821684888083125,0.9741782811120406,3.343685611049875e-08,3.5566536193365786e-14,3.171079979492397e-05,0.9999682892001694,6.070773559077538e-18
23562.5,2.1394493376351443e-15,8654.165766032744,0.010000000000000002,0.0005000000000000001,5.02588046113852e-10,0.024819316142298594,0.9751806495114055,3.3843707804209997e-08,3.1261342859537026e-14,3.0028812839323266e-05,0.9999699711871294,5.9591434725492965e-18
23812.5,1.9144851710819647e-15,8642.448841357142,0.010000000000000002,0.0005000000000000001,4.5500047888331775e-10,0.02407438222560065,0.9759255834814896,3.383790927187421e-08,2.783016440034441e-14,2.8653556948009997e-05,0.9999713464430241,5.765004915254689e-18
24062.5,1.713176099016276e-15,8628.441499539014,0.010000000000000002,0.0005000000000000001,4.1226552843598696e-10,0.023365243441616293,0.9766347225396093,3.360650906300885e-08,2.474354738735923e-14,2.7333583153497656e-05,0.9999726664168218,5.505620487972372e-18
24312.5,1.5330347764364953e-15,8621.601944646362,0.010000000000000002,0.0005000000000000001,3.6818679875269964e-10,0.022462876923449566,0.9775370883641786,3.434418493711163e-08,2.1827221506628753e-14,2.5915901812540708e-05,0.9999740840981656,5.514736390147206e-18
24562.5,1.3718354039104368e-15,8631.297903749854,0.010000000000000002,0.0005000000000000001,3.110536813018358e-10,0.020825226894987177,0.979174734715515,3.8078444200883705e-08,1.8509896672097956e-14,2.3929100644347983e-05,0.9999760708993372,6.263392909436193e-18
24812.5,1.2275862259280359e-15,8616.708630341403,0.010000000000000002,0.0005000000000000001,2.8052641777332325e-10,0.02015018883482731,0.9798497730136864,3.7870959842585375e-08,1.6370789209033796e-14,2.2758984294138394e-05,0.9999772410156895,5.980276491755755e-18
25062.5,1.0985049210660464e-15,8615.906306684446,0.010000000000000002,0.0005000000000000001,2.446395586862079e-10,0.019072008534191495,0.9809279512649899,3.995617894288989e-08,1.4182260879832136e-14,2.1323709128691523e-05,0.999978676290857,6.285280437919498e-18
25312.5,9.829965798891737e-16,8611.291185266607,0.010000000000000002,0.0005000000000000001,2.1239107103104942e-10,0.017999970390584968,0.9819999875335781,4.186344585737268e-08,1.2194583417669198e-14,1.9907979098768313e-05,0.9999800920208891,6.493003964719844e-18
25562.5,8.796339984859442e-16,8583.787569134494,0.010000000000000002,0.0005000000000000001,1.9765435044547972e-10,0.01777867819216296,0.982221282238261,3.937192167861275e-08,1.0992838718189628e-14,1.919868499048467e-05,0.9999808013149986,5.660939795756828e-18
25812.5,7.871400441490932e-16,8574.038496650845,0.010000000000000002,0.0005000000000000001,1.7455519654567813e-10,0.016967624852934217,0.9830323347604144,4.02120961992138e-08,9.565716553211519e-15,1.8068862548857792e-05,0.9999819311374415,5.621883742157996e-18
26062.5,7.043718753134748e-16,8558.887833501249,0.010000000000000002,0.0005000000000000001,1.5726588412840283e-10,0.016406455269144932,0.9835935046434812,3.993010810047535e-08,8.44531786546936e-15,1.716948324151993e-05,0.99998283051675,5.348897660955698e-18
26312.5,6.303068207753985e-16,8526.970664690742,0.010000000000000002,0.0005000000000000001,1.4997240977913056e-10,0.0164653329737641,0.9835346304146377,3.646162564795019e-08,7.761165434372803e-15,1.6761371816191657e-05,0.9999832386281761,4.469598314961647e-18
26562.5,5.640297437190854e-16,8490.210576334208,0.010000000000000002,0.0005000000000000001,1.4413128991641477e-10,0.016609603405822723,0.983390363781192,3.266885402283483e-08,7.155503446536284e-15,1.641218254428177e-05,0.9999835878174484,3.613496992278583e-18
26812.5,5.047217344220648e-16,8527.535769863829,0.010000000000000002,0.0005000000000000001,1.0942699218292069e-10,0.0143555093796041,0.9856444485528932,4.195807564889949e-08,5.605840138264755e-15,1.4380551405514938e-05,0.9999856194485889,5.135453311832282e-18
27062.5,4.516499919282499e-16,8498.443484431931,0.010000000000000002,0.0005000000000000001,1.0241008049778542e-10,0.014231709391272957,0.9857682514246172,3.9081699701190555e-08,5.071693390963491e-15,1.3903354044747626e-05,0.9999860966459502,4.408673350883809e-18
27312.5,4.0415876966813294e-16,8472.600320318681,0.010000000000000002,0.0005000000000000001,9.515107006818283e-11,0.014041858065942055,0.9859581049533277,3.6885579287734596e-08,4.568498774973084e-15,1.339871856925957e-05,0.9999866012814262,3.867675846442988e-18
27562.5,3.6166127315155164e-16,8446.247820663708,0.010000000000000002,0.0005000000000000001,8.8225902158237e-11,0.013836363730617108,0.9861636013822976,3.47988594090812e-08,4.1052136136639115e-15,1.2896060083262833e-05,0.9999871039399126,3.3853771806929943e-18
27812.5,3.2363240962210097e-16,8451.004085814004,0.010000000000000002,0.0005000000000000001,7.375483416991217e-11,0.01273789003972005,0.9872620715493284,3.833719666192128e-08,3.4307539028675252e-15,1.1816536964507658e-05,0.999988183463032,3.774205227893014e-18
28062.5,2.896023000890045e-16,8458.256686381977,0.010000000000000002,0.0005000000000000001,6.15412205400089e-11,0.011711142591943755,0.988288814779062,4.2567453071384604e-08,2.867446066607453e-15,1.082172014914471e-05,0.999989178279848,4.2707127456469764e-18
28312.5,2.5915047357208356e-16,8429.648628445833,0.010000000000000002,0.0005000000000000001,5.703631722572643e-11,0.011536914437561248,0.9884630455909336,3.991446890203935e-08,2.570819894746556e-15,1.0407550934587653e-05,0.9999895924490629,3.691114528416698e-18
28562.5,2.319006718247571e-16,8411.20037990332,0.010000000000000002,0.0005000000000000001,5.151301914086405e-11,0.011173477615651751,0.9888264831879156,3.9144919645253845e-08,2.267608985515773e-15,9.89207824935692e-06,0.9999901079217485,3.4320447080930745e-18
28812.5,2.0751620034302264e-16,8393.400098352178,0.010000000000000002,0.0005000000000000001,4.6537842115563255e-11,0.010823331914920476,0.9891766295972454,3.844129620822298e-08,2.0015645024236104e-15,9.404656443999602e-06,0.999990595343554,3.2005887814357452e-18
29062.5,1.856957682181596e-16,8371.436025260184,0.010000000000000002,0.0005000000000000001,4.2526196099485505e-11,0.010563348785319048,0.9894366141506602,3.702149468553006e-08,1.7797452718893446e-15,8.9882772767643e-06,0.9999910117227214,2.891974865642247e-18
29312.5,1.6616976543099967e-16,8352.269200252207,0.010000000000000002,0.0005000000000000001,3.840454233895372e-11,0.010230166095363124,0.9897697976560198,3.621021256827596e-08,1.5685206361223581e-15,8.540813082065927e-06,0.9999914591869163,2.6744053112954063e-18
29562.5,1.4869693159056714e-16,8332.248481982559,0.010000000000000002,0.0005000000000000001,3.48678143532884e-11,0.009942125815789085,0.9900578389545764,3.5194766653138903e-08,1.3882206326771657e-15,8.137308942499948e-06,0.9999918626910561,2.4510654669407734e-18
29812.5,1.3306137495651124e-16,8336.795490073324,0.010000000000000002,0.0005000000000000001,2.900180400219263e-11,0.00912165083586209,0.9908783102600155,3.8875120759632945e-08,1.1543462258630215e-15,7.4340961999215456e-06,0.9999925659037989,2.7399247241681632e-18
30062.5,1.1906990491282231e-16,8362.392032876365,0.010000000000000002,0.0005000000000000001,2.238851324818173e-11,0.007967901217388993,0.9920320508807505,4.7879472008348634e-08,9.101967311301478e-16,6.552741094510351e-06,0.9999934472589046,3.628111452203046e-18
30312.5,1.0654964493326699e-16,8327.936879707197,0.010000000000000002,0.0005000000000000001,2.1317675585902945e-11,0.007989886085773066,0.9920100706090015,4.328390785496165e-08,8.326471120892542e-16,6.3857154985201305e-06,0.9999936142845007,2.9672289240004266e-18
30562.5,9.534589654470015e-17,8304.123767841289,0.010000000000000002,0.0005000000000000001,1.9578522743751252e-11,0.007823926548292856,0.9921760321490792,4.128304956355253e-08,7.425723889796483e-16,6.116593717262608e-06,0.999993883406282,2.6386239718715226e-18
30812.5,8.532022789570408e-17,8294.863228739205,0.010000000000000002,0.0005000000000000001,1.7155530645210326e-11,0.007427840022523587,0.9925721176272294,4.2333091628302595e-08,6.410836221314933e-16,5.729546006945424e-06,0.9999942704539924,2.6310766930707072e-18
31062.5,7.63487633131863e-17,8252.0883344605,0.010000000000000002,0.0005000000000000001,1.6741036716314104e-11,0.0075701324959407765,0.9924298307841206,3.6703197472077694e-08,5.959204889091566e-16,5.647760531352455e-06,0.999994352239468,2.0106166547686906e-18
31312.5,6.832065271295936e-17,8240.671028493514,0.010000000000000002,0.0005000000000000001,1.469022788598586e-11,0.007194034765490136,0.9928059278617848,3.7358034870990196e-08,5.142751378596719e-16,5.292176282752885e-06,0.9999947078237167,1.976797512953192e-18
31562.5,6.113670195255989e-17,8224.285933835181,0.010000000000000002,0.0005000000000000001,1.3143165896639654e-11,0.006924368109745569,0.9930755948830541,3.699405721860355e-08,4.501012047926011e-16,5.005662224473699e-06,0.9999949943377751,1.8630941524972276e-18
31812.5,5.4708147203153835e-17,8216.152592787497,0.010000000000000002,0.0005000000000000001,1.1386626140131456e-11,0.0065252038906455576,0.9934747577680924,3.832987549809906e-08,3.848189699416753e-16,4.661438098688129e-06,0.9999953385619009,1.8825626182267203e-18
32062.5,4.895555819684887e-17,8198.329363111849,0.010000000000000002,0.0005000000000000001,1.0219978588055625e-11,0.006293866466130607,0.9937060958173448,3.770630466719805e-08,3.373935910823694e-16,4.415249353142875e-06,0.9999955847506464,1.754591260193013e-18
