velocity,density,temperature,si,ca,si0,si1,si2,si3,ca0,ca1,ca2,ca3
12900.0,2.541277005499972e-13,15603.678593134466,0.5,0.0,4.520907619670028e-15,1.2423169271265038e-06,0.2062883996049596,0.7935367153433125,,,,
13100.0,2.27406045894926e-13,15972.218628852273,0.5,0.0,3.92070277768744e-15,1.0851292945039943e-06,0.1717836269736393,0.8279400627129109,,,,
13350.0,2.0349418657487557e-13,15725.478835076803,0.5,0.0,9.059659305152976e-15,2.324874524246335e-06,0.26174126390389973,0.7381324552921922,,,,
13600.0,1.8209667120681525e-13,14952.700446160126,0.5,0.0,4.337251976216326e-14,9.423458407291573e-06,0.5595178140277214,0.4404597284179739,,,,
13850.0,1.6294911526822446e-13,13580.222895561868,0.5,0.0,3.4758079789077353e-13,5.031192968400238e-05,0.9375226262946256,0.06242699996686725,,,,
14100.0,1.4581493440119145e-13,12573.52237237176,0.04113110539845759,0.0005141388174807199,1.6674869288193722e-12,0.00015428385940343734,0.9926394067428737,0.0072063090486935545,2.7287182811977396e-15,1.8073499634995583e-06,0.999998190755682,1.8943517479688972e-09
14350.0,1.3048242121121783e-13,12435.853459583572,0.04113110539845759,0.0005141388174807199,2.0953769046349867e-12,0.0001862905441468674,0.9947834075829507,0.005030301721386239,3.1066890713881216e-15,2.0384016851434403e-06,0.9999979604973789,1.1009328729583738e-09
14600.0,1.1676212944208938e-13,12346.764801730042,0.04113110539845759,0.0005141388174807199,2.5172153589801395e-12,0.00021795762423773,0.9959491520876254,0.003832890205800309,3.468359598427809e-15,2.2612594510654378e-06,0.9999977379978754,7.426699781046684e-10
14850.0,1.0448453320606487e-13,12193.891644181771,0.04113110539845759,0.0005141388174807199,3.080898160881495e-12,0.0002585298272841653,0.9970926570209182,0.0026488131156081596,3.8269464021519765e-15,2.5011494988956135e-06,0.9999974984339238,4.165734386052327e-10
15100.0,9.349793234718112e-14,12084.723516723065,0.04113110539845759,0.0005141388174807199,3.624431008606785e-12,0.0002983328903197844,0.9977194900437177,0.0019821770456214366,4.151659554370169e-15,2.727011765243296e-06,0.999997272720701,2.6752963851679646e-10
15350.0,8.366657805665178e-14,11925.715088522973,0.04113110539845759,0.0005141388174807199,4.770424703875161e-12,0.00037082335191544253,0.9983468836770122,0.0012822929602981966,4.878210862263572e-15,3.135382196986139e-06,0.999996864479792,1.380062671182367e-10
15600.0,7.486899558074395e-14,11913.379312448244,0.04113110539845759,0.0005141388174807199,4.826247950712421e-12,0.0003865767139681895,0.9984081837627984,0.0012052395131808967,4.816321814336698e-15,3.1957628110314743e-06,0.9999968041100863,1.270978433639432e-10
15850.0,6.69964832967591e-14,11755.393595423877,0.04113110539845759,0.0005141388174807199,6.132041717541462e-12,0.0004693299394117934,0.9987363165995092,0.0007943534530033069,5.4782825435107165e-15,3.5976341511241555e-06,0.9999964022993145,6.652884173742174e-11
16100.0,5.995176961192406e-14,11584.217079656299,0.04113110539845759,0.0005141388174807199,7.693308867514407e-12,0.0005651947482911736,0.9989199637948905,0.0005148414484374696,6.112336380266241e-15,4.00700681146731e-06,0.9999959929597889,3.33935524122087e-11
16350.0,5.3647811090035056e-14,11443.693967902025,0.04113110539845759,0.0005141388174807199,9.44302252266722e-12,0.0006703272496854682,0.9989778442995754,0.0003518284410186021,6.775114996010372e-15,4.432094483921368e-06,0.9999955678871224,1.8386941640952138e-11
16600.0,4.800671695568517e-14,11384.906893833777,0.04113110539845759,0.0005141388174807199,1.0392475750569212e-11,0.0007388468571517527,0.998969995825239,0.0002911573070383777,7.068732972691824e-15,4.685684363880686e-06,0.9999953143017731,1.3855932538482641e-11
16850.0,4.295878668740975e-14,11130.88129017985,0.04113110539845759,0.0005141388174807199,1.5444711432907348e-11,0.0009950479039043394,0.9988592790656895,0.00014567301492738604,8.804926482209671e-15,5.627852896534957e-06,0.9999943721424738,4.6208931283896184e-12
17100.0,3.844164880839298e-14,11038.177684068667,0.04113110539845759,0.0005141388174807199,1.7983880857644734e-11,0.001138573504527493,0.9987519943204626,0.00010943215700874102,9.501965520544623e-15,6.092003812682202e-06,0.9999939079932029,2.9749085788023323e-12
17350.0,3.4399490233762105e-14,10874.244685726033,0.04113110539845759,0.0005141388174807199,2.3258218437884728e-11,0.001397238907579085,0.9985347249519448,6.803611721233116e-05,1.0866064479417427e-14,6.88361749639501e-06,0.9999931163810906,1.4022836322930302e-12
17600.0,3.0782366652398595e-14,10804.716619631306,0.04113110539845759,0.0005141388174807199,2.447462276895818e-11,0.0014959472384719148,0.9984476023272494,5.6450409800426954e-05,1.0795691275535983e-14,7.069471380622873e-06,0.9999929305275774,1.0311930679954363e-12
17850.0,2.7545585422446264e-14,10650.621072970474,0.04113110539845759,0.0005141388174807199,3.000496604497245e-11,0.0017724536214817378,0.9981909835245749,3.656282393716249e-05,1.177758796617094e-14,7.758817980786128e-06,0.999992241181498,5.094390443965465e-13
18100.0,2.464915335566515e-14,10485.971457389169,0.04113110539845759,0.0005141388174807199,4.19945577748196e-11,0.0022893191645585505,0.9976895751260774,2.110566736935123e-05,1.4426929125048283e-14,9.141058277889314e-06,0.9999908589414896,2.1808460589518826e-13
18350.0,2.2057282567535988e-14,10292.926630402186,0.04113110539845759,0.0005141388174807199,5.96630654429298e-11,0.002987569526078436,0.9970010869888869,1.1343425371540444e-05,1.7566770509238507e-14,1.0775616137117542e-05,0.9999892243837636,8.165577646008447e-14
18600.0,1.973794828747372e-14,10036.153279735205,0.04113110539845759,0.0005141388174807199,9.807064274635036e-11,0.004291756804035204,0.995703418544643,4.82455325128951e-06,2.3431133270715286e-14,1.3543146306303636e-05,0.9999864568536492,2.103507655633578e-14
18850.0,1.7662493165517183e-14,9727.00302338747,0.04113110539845759,0.0005141388174807199,1.9313311727482522e-10,0.0069363382770213575,0.9930620712582104,1.5902716351225076e-06,3.5468346446200106e-14,1.8514788528810097e-05,0.9999814852114322,3.663165947124729e-15
19100.0,1.5805273186368752e-14,9494.148412010083,0.010000000000000002,0.0005000000000000001,3.400148236219665e-10,0.010354899997562634,0.9896444568550047,6.428074178483352e-07,5.0657694792801285e-14,2.414480916769014e-05,0.9999758551907808,8.915988482127354e-16
19350.0,1.4143340815749032e-14,9441.458699868333,0.010000000000000002,0.0005000000000000001,3.642472440015256e-10,0.011209079062738516,0.9887903936316892,5.2694132496574e-07,5.1498501951854645e-14,2.5090800568927948e-05,0.9999749091993788,6.48917336545474e-16
19600.0,1.2656161464070822e-14,9371.446139693864,0.010000000000000002,0.0005000000000000001,4.006691928173875e-10,0.01234746407886422,0.9876521278193408,4.0770112568174054e-07,5.293617333853255e-14,2.6321717642070143e-05,0.9999736782823045,4.2799220908040736e-16
19850.0,1.1325359764099596e-14,9384.838241243488,0.010000000000000002,0.0005000000000000001,3.591040786528953e-10,0.011890901370716045,0.9881086625693523,4.357008275896433e-07,4.774843004465285e-14,2.5205269160430482e-05,0.9999747947307912,4.709906986966358e-16
20100.0,1.0134492527644325e-14,9308.637661292443,0.010000000000000002,0.0005000000000000001,3.925177953755243e-10,0.013046229847991375,0.9869534365437362,3.332157544212618e-07,4.8513075704767394e-14,2.6288687138867778e-05,0.9999737113128122,3.021361050816082e-16
20350.0,9.068845575966058e-15,9250.526890025087,0.010000000000000002,0.0005000000000000001,4.089075003038867e-10,0.013869675945967734,0.9861300500492909,2.73595833850285e-07,4.7724924774875526e-14,2.682128291964231e-05,0.9999731787170324,2.1648321005571575e-16
20600.0,8.115251933570281e-15,9249.764764660524,0.010000000000000002,0.0005000000000000001,3.6764242535110656e-10,0.013387787919606537,0.9866119289680971,2.827446540405301e-07,4.2665479168533635e-14,2.5607580542222456e-05,0.9999743924194149,2.230391026028921e-16
20850.0,7.261929139012919e-15,9232.924648527653,0.010000000000000002,0.0005000000000000001,3.389523240588042e-10,0.01313866975440869,0.9868610530169011,2.768897379270268e-07,3.85620398245927e-14,2.4676128819876857e-05,0.9999753238711413,2.097007703573937e-16
21100.0,6.498333662556294e-15,9257.415511130139,0.010000000000000002,0.0005000000000000001,2.8755226970856073e-10,0.012207193102648659,0.9877924913628476,3.1524695145544265e-07,3.324497397810416e-14,2.2957608871957753e-05,0.9999770423910944,2.5250456794699775e-16
21350.0,5.8150306318814175e-15,9205.907323026371,0.010000000000000002,0.0005000000000000001,2.974385969674055e-10,0.012917274910274277,0.987082461101176,2.6369111113034964e-07,3.263888348119167e-14,2.3365188581278168e-05,0.999976634811386,1.8692282635420426e-16
21600.0,5.203577256206519e-15,9178.385570552004,0.010000000000000002,0.0005000000000000001,2.839615824910131e-10,0.01296983797737279,0.9870299158236546,2.459150110090223e-07,3.023123564570548e-14,2.2883228299191547e-05,0.9999771167716704,1.6311536881838719e-16
21850.0,4.656418508417915e-15,9162.65150875311,0.010000000000000002,0.0005000000000000001,2.609581415383938e-10,0.012701664729053116,0.9872980932127693,2.417972193777487e-07,2.7244452309606965e-14,2.2006789704727466e-05,0.9999779932102678,1.54288417928194e-16
22100.0,4.1667937762768275e-15,9149.12391600064,0.010000000000000002,0.0005000000000000001,2.388876508706211e-10,0.012407148542885644,0.9875926116544069,2.3956381976970984e-07,2.4500090773469992e-14,2.1128269689435238e-05,0.999978871730286,1.4781127816641598e-16
22350.0,3.728653329298425e-15,9157.933569414572,0.010000000000000002,0.0005000000000000001,2.0297976982312019e-10,0.011541914880103595,0.9884578219549042,2.629620125551259e-07,2.0873942485478586e-14,1.9572578016136312e-05,0.9999804274219629,1.6547128818705867e-16
22600.0,3.336583569180362e-15,9102.90841242292,0.010000000000000002,0.0005000000000000001,2.0723019454333693e-10,0.01211156999404488,0.9878882102493669,2.195493580115315e-07,2.0167178115572522e-14,1.9747330184204846e-05,0.9999802526697954,1.2091266065448414e-16
22850.0,2.985740140185964e-15,9097.603559838635,0.010000000000000002,0.0005000000000000001,1.860525451646255e-10,0.011680441539385288,0.9883193336754508,2.2459911136367843e-07,1.79083081078353e-14,1.8789478017002977e-05,0.999981210521965,1.2195413081012555e-16
23100.0,2.6717880730041475e-15,9070.769116063611,0.010000000000000002,0.0005000000000000001,1.747622533601283e-10,0.01160509498716644,0.9883946930443267,2.1179374470114512e-07,1.6327489643198227e-14,1.822947906994284e-05,0.9999817705209135,1.0761841507476638e-16
23350.0,2.3908482225122977e-15,9039.2557935625,0.010000000000000002,0.0005000000000000001,1.64354746256196e-10,0.011540397598329952,0.9884594049551425,1.97282172805624e-07,1.4848472020362647e-14,1.7676107370899e-05,0.9999823238926142,9.270761735453706e-17
23600.0,2.1394493376351443e-15,9023.526630101904,0.010000000000000002,0.0005000000000000001,1.487595483379547e-10,0.011190621503334544,0.9888091825964761,1.9575142975164027e-07,1.3177834038985432e-14,1.6846028197743498e-05,0.9999831539717889,8.83916688250715e-17
23850.0,1.9144851710819647e-15,9021.166872086327,0.010000000000000002,0.0005000000000000001,1.3152899949261062e-10,0.010684680762343421,0.9893151154020574,2.03704070178459e-07,1.1553468556261797e-14,1.589953919223927e-05,0.999984100460796,9.132847928127493e-17
24100.0,1.713176099016276e-15,9022.954345173512,0.010000000000000002,0.0005000000000000001,1.133533984161509e-10,0.010032195385734775,0.9899675866640724,2.1783683941114483e-07,9.916498884595135e-15,1.4809292120674907e-05,0.9999851907078692,9.796645023325879e-17
24350.0,1.5330347764364953e-15,8998.371317296145,0.010000000000000002,0.0005000000000000001,1.0567484281653146e-10,0.009918399435855688,0.9900813931044826,2.0735398678051978e-07,8.987264328097749e-15,1.4311343179743135e-05,0.9999856886568111,8.765845410169756e-17
24600.0,1.3718354039104368e-15,8979.661121861705,0.010000000000000002,0.0005000000000000001,9.55885889997656e-11,0.0096143634114871,0.9903854322236394,2.0426928507560173e-07,7.950930358158305e-15,1.3621542606586087e-05,0.9999863784573855,8.23423416469504e-17
24850.0,1.2275862259280359e-15,8988.811952870057,0.010000000000000002,0.0005000000000000001,7.943589488553002e-11,0.008814509095823177,0.9911852629495486,2.2787519255384917e-07,6.629159107809825e-15,1.2455970561998571e-05,0.9999875440294314,9.385079022291535e-17
25100.0,1.0985049210660464e-15,8966.245728976679,0.010000000000000002,0.0005000000000000001,7.212973133090586e-11,0.00856626165643548,0.9914335164698049,2.2180162991589092e-07,5.868874081906941e-15,1.1869424541201106e-05,0.999988130575453,8.626980007439548e-17
25350.0,9.829965798891737e-16,8970.072362008263,0.010000000000000002,0.0005000000000000001,6.223567857081756e-11,0.008048296591418282,0.9919514652516425,2.3809470358979513e-07,5.047779884355216e-15,1.1062969296874212e-05,0.9999889370306979,9.337480204618255e-17
25600.0,8.796339984859442e-16,8941.32305872371,0.010000000000000002,0.0005000000000000001,5.800623964502293e-11,0.007956603257680347,0.9920431724506811,2.2423363252086272e-07,4.558310847264004e-15,1.0677393819685382e-05,0.9999893226061756,8.175372160461267e-17
25850.0,7.871400441490932e-16,8919.133850348731,0.010000000000000002,0.0005000000000000001,5.2743706787809294e-11,0.007739381912605383,0.9922603999229929,2.1811165806692205e-07,4.040963460845255e-15,1.0181893698593063e-05,0.9999898181062973,7.512750066132358e-17
26100.0,7.043718753134748e-16,8893.090177891583,0.010000000000000002,0.0005000000000000001,4.8902816690387154e-11,0.007624818430666811,0.9923749741782741,2.0734215629626826e-07,3.637616002108909e-15,9.803983986916022e-06,0.9999901960160095,6.679615917834998e-17
26350.0,6.303068207753985e-16,8875.728499830308,0.010000000000000002,0.0005000000000000001,4.3911920258696934e-11,0.007355601306346471,0.9926441929480543,2.0570168726798487e-07,3.1977724896534532e-15,9.29444931702234e-06,0.9999907055506798,6.334112964086576e-17
26600.0,5.640297437190854e-16,8876.30210511131,0.010000000000000002,0.0005000000000000001,3.75796224528318e-11,0.006874435527094238,0.9931253441482961,2.202870300122637e-07,2.7223744645748683e-15,8.616542520577984e-06,0.9999913834574768,6.785413540132342e-17
26850.0,5.047217344220648e-16,8845.927474062353,0.010000000000000002,0.0005000000000000001,3.524796823888099e-11,0.006824545207685147,0.993175249323318,2.0543374885968203e-07,2.4689637830455875e-15,8.340411858366723e-06,0.9999916595881391,5.849598981411015e-17
27100.0,4.516499919282499e-16,8824.770918191482,0.010000000000000002,0.0005000000000000001,3.2130848814066325e-11,0.006648963043068816,0.9933508371827648,1.997420353201025e-07,2.194612560912895e-15,7.964327363381249e-06,0.9999920356726344,5.381082746538565e-17
27350.0,4.0415876966813294e-16,8814.294652947083,0.010000000000000002,0.0005000000000000001,2.8014420359390448e-11,0.006291431480456153,0.9937083629915325,2.0549999692183945e-07,1.8859860311779543e-15,7.4409955136937925e-06,0.9999925590044845,5.383346497974175e-17
27600.0,3.6166127315155164e-16,8812.015158710632,0.010000000000000002,0.0005000000000000001,2.412491916523416e-11,0.005904044675136599,0.9940957377381868,2.175625515186046e-07,1.6113481464880855e-15,6.916339685234681e-06,0.9999930836603131,5.65984227938363e-17
27850.0,3.2363240962210097e-16,8806.901990850489,0.010000000000000002,0.0005000000000000001,2.078171290256297e-11,0.005541959139888041,0.9944578121761986,2.2866313168318002e-07,1.3743340004937156e-15,6.426117610450291e-06,0.9999935738823882,5.864701041145693e-17
28100.0,2.896023000890045e-16,8817.434170449696,0.010000000000000002,0.0005000000000000001,1.707017490229619e-11,0.00504137278886494,0.9949583691788801,2.580151846806635e-07,1.1338867456721485e-15,5.837064040753728e-06,0.9999941629359581,6.79312060416325e-17
28350.0,2.5915047357208356e-16,8789.451764829828,0.010000000000000002,0.0005000000000000001,1.5731233133102968e-11,0.004947535248867773,0.9950522200183333,2.4471706766802454e-07,1.0131275389008708e-15,5.598832435841394e-06,0.9999944011675631,5.987525227718031e-17
28600.0,2.319006718247571e-16,8790.62480018201,0.010000000000000002,0.0005000000000000001,1.328250411877792e-11,0.004583044511240644,0.9954166906922863,2.647831905255599e-07,8.518299327849102e-16,5.151846488800083e-06,0.9999948481535104,6.492033427135301e-17
28850.0,2.0751620034302264e-16,8763.501773599985,0.010000000000000002,0.0005000000000000001,1.2337456167086397e-11,0.004520722186147985,0.9954790275842244,2.5021729025722696e-07,7.669604309955475e-16,4.9626378251208615e-06,0.9999950373621742,5.71110489022193e-17
29100.0,1.856957682181596e-16,8736.5423401652,0.010000000000000002,0.0005000000000000001,1.1322901216268275e-11,0.004424618433840241,0.9955751431647791,2.3839005774943914e-07,6.83024401796878e-16,4.750253573147001e-06,0.9999952497464262,5.065723481487e-17
29350.0,1.6616976543099967e-16,8705.951721679412,0.010000000000000002,0.0005000000000000001,1.0573707362365655e-11,0.004380193839475854,0.9956195838413789,2.2230857154506646e-07,6.164438528566917e-16,4.58601217640717e-06,0.9999954139878231,4.353941822995831e-17
29600.0,1.4869693159056714e-16,8693.467037611948,0.010000000000000002,0.0005000000000000001,9.301478237091318e-12,0.004168781638835808,0.9958309923936981,2.2595816461281413e-07,5.331548460136202e-16,4.302385560904692e-06,0.9999956976144386,4.277582714179675e-17
29850.0,1.3306137495651124e-16,8672.838379525363,0.010000000000000002,0.0005000000000000001,8.385696685479134e-12,0.004032412168313688,0.9959673666192723,2.2120402834106136e-07,4.69001257602063e-16,4.083563991962978e-06,0.9999959164360076,3.9605342379320513e-17
30100.0,1.1906990491282231e-16,8679.671031217586,0.010000000000000002,0.0005000000000000001,6.9244248472928605e-12,0.0036808762833119932,0.9963188772093581,2.4650040556614955e-07,3.8778525967123867e-16,3.716363100181145e-06,0.9999962836368995,4.490664485697213e-17
30350.0,1.0654964493326699e-16,8652.067342421993,0.010000000000000002,0.0005000000000000001,6.390367385704483e-12,0.0036157967049784794,0.9963839700279249,2.332607062237229e-07,3.468416646126655e-16,3.5670696856027878e-06,0.999996432930314,3.944056689191564e-17
30600.0,9.534589654470015e-17,8627.282783877657,0.010000000000000002,0.0005000000000000001,5.812743632033701e-12,0.0035183155782716447,0.9964814599778147,2.2443810095171934e-07,3.0670561875068365e-16,3.3992668548687873e-06,0.9999966007331449,3.5475215092088643e-17
30850.0,8.532022789570408e-17,8618.427007566494,0.010000000000000002,0.0005000000000000001,5.047616364569559e-12,0.003320039769611935,0.9966797280800771,2.32145263353826e-07,2.6273217182108455e-16,3.168809600092892e-06,0.9999968311903996,3.579740110059556e-17
31100.0,7.63487633131863e-17,8622.083256911985,0.010000000000000002,0.0005000000000000001,4.1994561648046316e-12,0.0030456438515463016,0.9969541008446287,2.5529962553363037e-07,2.1824627546770343e-16,2.8935571107205313e-06,0.999997106442889,3.972668733124643e-17
31350.0,6.832065271295936e-17,8610.06381192784,0.010000000000000002,0.0005000000000000001,3.69329883208557e-12,0.002898090308096613,0.9971016500450615,2.5964314860757287e-07,1.8871699502439142e-16,2.713956443074278e-06,0.9999972860435569,3.907872693953687e-17
31600.0,6.113670195255989e-17,8573.45147703644,0.010000000000000002,0.0005000000000000001,3.511211623796678e-12,0.0029033098876086543,0.9970964551780088,2.349308712107726e-07,1.7233864202399579e-16,2.642216708729537e-06,0.999997357783291,3.1984320306700944e-17
31850.0,5.4708147203153835e-17,8566.371990640744,0.010000000000000002,0.0005000000000000001,3.0320499275768107e-12,0.0027295608617121533,0.9972701941715284,2.449637273774802e-07,1.470295034262251e-16,2.4562523710836955e-06,0.9999975437476288,3.268540274220746e-17
32100.0,4.895555819684887e-17,8547.953842370687,0.010000000000000002,0.0005000000000000001,2.7110988489178157e-12,0.00262600924954465,0.9973737486000015,2.421477428394112e-07,1.2850482127715862e-16,2.321674347452143e-06,0.9999976783256523,3.069594760505913e-17
