velocity,density,temperature,si,ca,si0,si1,si2,si3,ca0,ca1,ca2,ca3
12975.0,2.541277005499972e-13,14791.53879339581,0.5,0.0,1.7859000214963425e-14,4.292981714552898e-06,0.44819893747985473,0.5517729983509708,,,,
13025.0,2.27406045894926e-13,15026.276328748858,0.5,0.0,1.6207443331623286e-14,3.995478202411618e-06,0.4063017112661415,0.5936594057963283,,,,
13275.0,2.0349418657487557e-13,14827.226592114092,0.5,0.0,3.42714299550101e-14,7.707192450425299e-06,0.5421729350247666,0.4578057413585715,,,,
13525.0,1.8209667120681525e-13,14102.329411977424,0.5,0.0,1.222226515668917e-13,2.257403432460718e-05,0.8186059603386014,0.1813705910938612,,,,
13775.0,1.6294911526822446e-13,12824.994428326167,0.5,0.0,8.295985936534872e-13,9.32308662095055e-05,0.9839065948616772,0.01600017212135101,,,,
14025.0,1.4581493440119145e-13,11974.831453949051,0.050890585241730284,0.0005089058524173028,3.4406677737743922e-12,0.0002523762878240311,0.9976981535425293,0.002049470149883526,3.989527766916598e-15,2.405660687411555e-06,0.9999975940993588,2.3994980341801345e-10
14275.0,1.3048242121121783e-13,11868.302835593475,0.050890585241730284,0.0005089058524173028,4.247283168461735e-12,0.0003005228816070734,0.9982162296413922,0.0014832474650552437,4.528014050920762e-15,2.701800467728504e-06,0.9999972980507498,1.4877797534296374e-10
14525.0,1.1676212944208938e-13,11805.23566155053,0.050890585241730284,0.0005089058524173028,4.810811560455969e-12,0.0003378259848546827,0.9984569488054241,0.0012052252001412292,4.85170023036317e-15,2.9146843654975583e-06,0.9999970852055342,1.1009545513044401e-10
14775.0,1.0448453320606487e-13,11667.192175263453,0.050890585241730284,0.0005089058524173028,6.186920021688078e-12,0.00041329892248797786,0.9987790837767683,0.000807617292692691,5.622366970612262e-15,3.3220071166823648e-06,0.9999966779328022,6.007550650937929e-11
15025.0,9.349793234718112e-14,11555.806083096502,0.050890585241730284,0.0005089058524173028,7.345324870223795e-12,0.0004794910975363513,0.9989297674040053,0.0005907414902232975,6.129232937387496e-15,3.635198608170464e-06,0.9999963647642821,3.7103537365247945e-11
15275.0,8.366657805665178e-14,11431.45855095433,0.050890585241730284,0.0005089058524173028,8.994737389027487e-12,0.0005677027719027623,0.9990184465942797,0.0004138506244393108,6.82542282461425e-15,4.03416248287659e-06,0.9999959658160664,2.144384659453566e-11
15525.0,7.486899558074395e-14,11397.91227621552,0.050890585241730284,0.0005089058524173028,9.532985073668104e-12,0.0006103255019913534,0.9990247367820155,0.0003649377061727421,6.980044500332293e-15,4.209128340248138e-06,0.9999957908537399,1.7913017440298048e-11
15775.0,6.69964832967591e-14,11308.236872929549,0.050890585241730284,0.0005089058524173028,1.112652625637732e-11,0.0006996087184410679,0.9990234365289368,0.00027695474134543214,7.571452634264905e-15,4.577178744243283e-06,0.9999954228094616,1.1786452698939582e-11
16025.0,5.995176961192406e-14,11161.001399485644,0.050890585241730284,0.0005089058524173028,1.3969964548181423e-11,0.0008420621694178634,0.9989753516244817,0.0001825861920748787,8.508656339809501e-15,5.115049655490949e-06,0.9999948849442076,6.128369901877569e-12
16275.0,5.3647811090035056e-14,11050.776406838597,0.050890585241730284,0.0005089058524173028,1.689187886001915e-11,0.0009879924006295038,0.9988818095564902,0.0001301980259633519,9.418879067802138e-15,5.640702448085637e-06,0.9999943592939011,3.6413717759792115e-12
16525.0,4.800671695568517e-14,10850.019979791441,0.050890585241730284,0.0005089058524173028,2.3562686820730985e-11,0.0012747168505851732,0.9986528279839565,7.245514188970017e-05,1.1288706817464932e-14,6.5935343779348755e-06,0.9999934064641677,1.443030366462491e-12
16775.0,4.295878668740975e-14,10707.074897687307,0.050890585241730284,0.0005089058524173028,2.92178770690409e-11,0.0015211496810634954,0.998431284196849,4.7566092867422504e-05,1.2509545860202508e-14,7.302771180246885e-06,0.9999926972280692,7.380088900286357e-13
17025.0,3.844164880839298e-14,10605.769870402863,0.050890585241730284,0.0005089058524173028,3.425367155776119e-11,0.0017484268508943677,0.9982169396434659,3.463347138497047e-05,1.348083720638094e-14,7.91326633695671e-06,0.9999920867332015,4.481569201440002e-13
17275.0,3.4399490233762105e-14,10499.436310429937,0.050890585241730284,0.0005089058524173028,4.223111857539516e-11,0.0020767364282899053,0.9978991787584093,2.4084771069269078e-05,1.5179492831979122e-14,8.80864674025818e-06,0.999991191352988,2.566034725136459e-13
17525.0,3.0782366652398595e-14,10334.72505208488,0.050890585241730284,0.0005089058524173028,5.607969337819101e-11,0.0025918552291469992,0.9973938679990694,1.427671570372568e-05,1.7622663333045543e-14,1.006295054902308e-05,0.9999899370493215,1.1185576864124183e-13
17775.0,2.7545585422446264e-14,10218.951755339667,0.050890585241730284,0.0005089058524173028,6.837819263415586e-11,0.003056717244492808,0.996933555103651,9.72758347806054e-06,1.9463339034423402e-14,1.1086828879478307e-05,0.99998891317104,6.102145969877349e-14
18025.0,2.464915335566515e-14,10018.995996604886,0.050890585241730284,0.0005089058524173028,9.895308872946078e-11,0.004036566680597698,0.9959584351243757,4.998096073648097e-06,2.3804137599557077e-14,1.313994457681047e-05,0.9999868600553782,2.1129116414726748e-14
18275.0,2.2057282567535988e-14,9863.207787677911,0.050890585241730284,0.0005089058524173028,1.344530294739819e-10,0.005110395710926991,0.9948867210870729,2.8830675471368535e-06,2.821680508926007e-14,1.5192141582549351e-05,0.9999848078583804,8.86176485472748e-15
18525.0,1.973794828747372e-14,9666.919327247473,0.050890585241730284,0.0005089058524173028,2.0636371325976872e-10,0.007007405131471549,0.9929912007904057,1.3938717589011562e-06,3.634536042026305e-14,1.857666385824022e-05,0.9999814233361025,2.827915871975191e-15
18775.0,1.7662493165517183e-14,9353.468363199623,0.050890585241730284,0.0005089058524173028,4.338641657433017e-10,0.011807836327329721,0.988191750168413,4.1307039309211507e-07,5.725747856406156e-14,2.612139127409905e-05,0.9999738786086683,4.1726456065616954e-16
19025.0,1.5805273186368752e-14,9143.061224682517,0.010000000000000002,0.0005000000000000001,7.601335887196416e-10,0.017554527532608524,0.9824453029916668,1.6871559096358742e-07,8.187976768512937e-14,3.406377488137689e-05,0.9999659362250366,1.0408786743245797e-16
19275.0,1.4143340815749032e-14,9112.927372906966,0.010000000000000002,0.0005000000000000001,7.779459555129912e-10,0.01843813494137515,0.9815617152429341,1.4903774472266997e-07,8.119235510763837e-14,3.475738287755286e-05,0.9999652426170411,8.546794836130703e-17
19525.0,1.2656161464070822e-14,9108.42174799649,0.010000000000000002,0.0005000000000000001,7.268580123983871e-10,0.01824886360806655,0.9817509868673807,1.4879769465590982e-07,7.53218490503303e-14,3.394068136368417e-05,0.9999660593185609,8.432301026869635e-17
19775.0,1.1325359764099596e-14,9080.467771642967,0.010000000000000002,0.0005000000000000001,7.138559417685348e-10,0.018662100296562626,0.9813377631803558,1.3580922560107307e-07,7.179729844397065e-14,3.382071652932102e-05,0.9999661792833989,7.185936442688036e-17
20025.0,1.0134492527644325e-14,9021.25320540573,0.010000000000000002,0.0005000000000000001,7.575055445126615e-10,0.02007626206220094,0.9799236281655079,1.0901478555471527e-07,7.173969877659576e-14,3.4849153779163534e-05,0.999965150846149,4.987607626499294e-17
20275.0,9.068845575966058e-15,8978.64576449782,0.010000000000000002,0.0005000000000000001,7.842325514818584e-10,0.021249431312099068,0.9787504754242162,9.247945210118931e-08,7.103097017701684e-14,3.560687654417973e-05,0.9999643931233848,3.805843027426829e-17
20525.0,8.115251933570281e-15,8936.825591909432,0.010000000000000002,0.0005000000000000001,7.85201394737227e-10,0.022008797113871104,0.9779911217539956,8.034693188431171e-08,6.806705508860209e-14,3.5685202199816875e-05,0.9999643147977321,2.976393685827391e-17
20775.0,7.261929139012919e-15,8935.729814106755,0.010000000000000002,0.0005000000000000001,7.070889072380481e-10,0.0212695311022409,0.9787303852679464,8.292272383385646e-08,6.10164622050066e-14,3.4123795198533125e-05,0.9999658762047404,3.059183854126072e-17
21025.0,6.498333662556294e-15,8876.971170480765,0.010000000000000002,0.0005000000000000001,7.512732426259684e-10,0.022899760175137774,0.9771001728283417,6.624524720089744e-08,6.100230277047091e-14,3.517435713505496e-05,0.9999648256428039,2.106111236847578e-17
21275.0,5.8150306318814175e-15,8887.18881233853,0.010000000000000002,0.0005000000000000001,6.550065696042343e-10,0.021668628183516038,0.9783312992690814,7.189239612037028e-08,5.350797107855153e-14,3.31350373724467e-05,0.9999668649625741,2.3419374671740462e-17
21525.0,5.203577256206519e-15,8890.042375475294,0.010000000000000002,0.0005000000000000001,5.802275504579796e-10,0.020717853654187154,0.9792820700013323,7.576425303542496e-08,4.733316852118343e-14,3.141351571445358e-05,0.9999685864842383,2.4822439393155073e-17
21775.0,4.656418508417915e-15,8841.91989397899,0.010000000000000002,0.0005000000000000001,5.91854483336965e-10,0.02172194725866062,0.9782779883117882,6.383769665489534e-08,4.5890195578184415e-14,3.173680197904054e-05,0.9999682631979752,1.8488414162073698e-17
22025.0,4.1667937762768275e-15,8812.03246079559,0.010000000000000002,0.0005000000000000001,5.573041901664806e-10,0.021618254810180766,0.9783816852010834,5.943143170734016e-08,4.181540101843011e-14,3.081105116149701e-05,0.9999691889487966,1.591965643278749e-17
22275.0,3.728653329298425e-15,8803.379974168658,0.010000000000000002,0.0005000000000000001,5.100520949042553e-10,0.02111548959018381,0.9788844504031845,5.949657954590308e-08,3.777709824350282e-14,2.9637571883974703e-05,0.9999703624280782,1.556426895816994e-17
22525.0,3.336583569180362e-15,8808.007608114818,0.010000000000000002,0.0005000000000000001,4.375836813423712e-10,0.01977356022488387,0.9802263749525356,6.438499666388021e-08,3.2420341555105324e-14,2.75919234502562e-05,0.9999724080765173,1.7016029078497126e-17
22775.0,2.985740140185964e-15,8802.023511798136,0.010000000000000002,0.0005000000000000001,3.933367091841671e-10,0.019088347784678154,0.9809115861339464,6.568803871302331e-08,2.8836873918820175e-14,2.628554827682368e-05,0.9999737144516944,1.706976675753848e-17
23025.0,2.6717880730041475e-15,8774.542844783753,0.010000000000000002,0.0005000000000000001,3.7173039477212753e-10,0.01904196981709451,0.9809579684847831,6.132639201494449e-08,2.6417520287580064e-14,2.5586058854247602e-05,0.9999744139411194,1.4822529091587844e-17
23275.0,2.3908482225122977e-15,8763.694180333188,0.010000000000000002,0.0005000000000000001,3.329297566018567e-10,0.018340076238982518,0.9816598614830044,6.194508342001857e-08,2.330848962989793e-14,2.4283020383849798e-05,0.9999757169795928,1.453384305500647e-17
23525.0,2.1394493376351443e-15,8746.818293297089,0.010000000000000002,0.0005000000000000001,3.035919993240921e-10,0.01787310407079961,0.9821268347712724,6.085433592269712e-08,2.0814421989405372e-14,2.3237090955445698e-05,0.9999767629090237,1.3643582468989918e-17
23775.0,1.9144851710819647e-15,8727.111039451878,0.010000000000000002,0.0005000000000000001,2.810761237586502e-10,0.017591394807009247,0.9824085461879288,5.872398578853625e-08,1.8813415466923227e-14,2.2406655548325667e-05,0.9999775933444328,1.2486584887962898e-17
24025.0,1.713176099016276e-15,8719.626791466648,0.010000000000000002,0.0005000000000000001,2.479673111662656e-10,0.0167766314683765,0.9832233078577591,6.042589708256669e-08,1.6402491802466535e-14,2.1103031149781425e-05,0.9999788969688338,1.2579370155017302e-17
24275.0,1.5330347764364953e-15,8696.496994029174,0.010000000000000002,0.0005000000000000001,2.2985122505303984e-10,0.016525943870210533,0.9834739981677121,5.7732226176757105e-08,1.4795727266898977e-14,2.0339178327703112e-05,0.9999796608216576,1.1292114309509679e-17
24525.0,1.3718354039104368e-15,8698.722290400852,0.010000000000000002,0.0005000000000000001,1.9921197013706808e-10,0.015577258730851418,0.9844226794354325,6.163450411314819e-08,1.2785348885399653e-14,1.901801013453495e-05,0.9999809819898526,1.2108699269923035e-17
24775.0,1.2275862259280359e-15,8661.94492008342,0.010000000000000002,0.0005000000000000001,1.9162601912919147e-10,0.01572181563840753,0.9842781287670838,5.5402882585993995e-08,1.180952331497052e-14,1.8637616948601325e-05,0.9999813623830397,9.859619723451672e-18
25025.0,1.0985049210660464e-15,8643.948348222426,0.010000000000000002,0.0005000000000000001,1.7521001110586417e-10,0.015348513306944095,0.9846514324137462,5.410409970293162e-08,1.0556562976633733e-14,1.7849511130347003e-05,0.9999821504888591,9.16415504444148e-18
25275.0,9.829965798891737e-16,8660.382234188319,0.010000000000000002,0.0005000000000000001,1.43738730967569e-10,0.01395627561374328,0.9860436620246805,6.22178374468123e-08,8.757565259124019e-15,1.6248556961484705e-05,0.9999837514430298,1.0994932972975962e-17
25525.0,8.796339984859442e-16,8630.068195632139,0.010000000000000002,0.0005000000000000001,1.3571959551922913e-10,0.013915465450540397,0.9860844768564182,5.755732175328367e-08,7.988214173918116e-15,1.57864618407424e-05,0.9999842135381513,9.366727126372123e-18
25775.0,7.871400441490932e-16,8636.904051507661,0.010000000000000002,0.0005000000000000001,1.1444006010607869e-10,0.012882504602227675,0.9871174319312387,6.335209361979013e-08,6.747100492588655e-15,1.4550661493199394e-05,0.9999854493385001,1.0486055170765844e-17
26025.0,7.043718753134748e-16,8609.508543244685,0.010000000000000002,0.0005000000000000001,1.0661379393345769e-10,0.012732587137280735,0.9872673531818894,5.957421605308749e-08,6.0900965196585936e-15,1.4042191428779451e-05,0.999985957808565,9.1484313244747e-18
26275.0,6.303068207753985e-16,8582.705686083562,0.010000000000000002,0.0005000000000000001,9.997802585616435e-11,0.012638274295905347,0.9873616697735066,5.5830609995754214e-08,5.5334454065047625e-15,1.3602221954150632e-05,0.9999863977780403,7.963372802870052e-18
26525.0,5.640297437190854e-16,8556.642565664555,0.010000000000000002,0.0005000000000000001,9.274931217572345e-11,0.012456886558080827,0.9875430605592488,5.278992110080848e-08,4.978966803506753e-15,1.3099910229858715e-05,0.9999869000897651,7.00469081386801e-18
26775.0,5.047217344220648e-16,8542.333379960657,0.010000000000000002,0.0005000000000000001,8.295851214425386e-11,0.011987433950100726,0.9880125131900676,5.277687310895964e-08,4.369526859851217e-15,1.2402544732625197e-05,0.999987597455263,6.725361869332064e-18
27025.0,4.516499919282499e-16,8539.663037976568,0.010000000000000002,0.0005000000000000001,7.140580886675391e-11,0.011248534766637038,0.9887514093036777,5.5858279468265425e-08,3.733190609062613e-15,1.1531065880691798e-05,0.9999884689341155,7.057133500524551e-18
27275.0,4.0415876966813294e-16,8530.434060455613,0.010000000000000002,0.0005000000000000001,6.255821545055263e-11,0.01067845454415574,0.9893214879967019,5.739658412268195e-08,3.2257737021850876e-15,1.0806976003535512e-05,0.9999891930239931,7.061276069029145e-18
27525.0,3.6166127315155164e-16,8516.745714641274,0.010000000000000002,0.0005000000000000001,5.572939864636209e-11,0.010248767179078912,0.9897511751510385,5.761415322133019e-08,2.821165480022487e-15,1.020966385028299e-05,0.999989790336147,6.817533306618279e-18
27775.0,3.2363240962210097e-16,8497.578865197349,0.010000000000000002,0.0005000000000000001,5.07467987581033e-11,0.009978802972336899,0.9900211408409669,5.6135949526908975e-08,2.507467325759649e-15,9.748174063004038e-06,0.9999902518259345,6.2921557537867026e-18
28025.0,2.896023000890045e-16,8484.579330303868,0.010000000000000002,0.0005000000000000001,4.5221667951980324e-11,0.009579058943996348,0.9904208845897329,5.642104922444552e-08,2.1945335109808337e-15,9.211859879673315e-06,0.9999907881401181,6.092789391785474e-18
28275.0,2.5915047357208356e-16,8455.773885357436,0.010000000000000002,0.0005000000000000001,4.222361802807789e-11,0.009482010246836134,0.9905179370790705,5.2631869771829914e-08,1.9812599424215468e-15,8.895278739006359e-06,0.9999911047212591,5.2385175801775754e-18
28525.0,2.319006718247571e-16,8445.753968191257,0.010000000000000002,0.0005000000000000001,3.6944086748965145e-11,0.008993819579895646,0.9910061264064484,5.397671180080107e-08,1.7083837919688636e-15,8.328100057677967e-06,0.9999916718999406,5.217690121713925e-18
28775.0,2.0751620034302264e-16,8446.824385573284,0.010000000000000002,0.0005000000000000001,3.1298339430685605e-11,0.008351395280691851,0.9916485463827925,5.8305217178003224e-08,1.4418701787624142e-15,7.681229736889704e-06,0.9999923187702616,5.6469666667754285e-18
29025.0,1.856957682181596e-16,8459.108568345837,0.010000000000000002,0.0005000000000000001,2.5326301252560948e-11,0.007524612608611326,0.9924753203956106,6.697045173820073e-08,1.1761514459750679e-15,6.928019721816832e-06,0.999993071980277,6.706820911705104e-18
29275.0,1.6616976543099967e-16,8435.965673357554,0.010000000000000002,0.0005000000000000001,2.320865130013647e-11,0.007357271978858585,0.9926426637780308,6.421990196336347e-08,1.0479516460982684e-15,6.630511090211603e-06,0.9999933694889086,6.0203929496336235e-18
29525.0,1.4869693159056714e-16,8394.840895402225,0.010000000000000002,0.0005000000000000001,2.2665618886744756e-11,0.007501068544912219,0.9924988753068219,5.612560038435055e-08,9.767978583840111e-16,6.541329073166041e-06,0.9999934586709259,4.678481488836864e-18
29775.0,1.3306137495651124e-16,8377.344829043004,0.010000000000000002,0.0005000000000000001,2.0318222890601428e-11,0.007229063879614114,0.9927708806658984,5.5434169323229496e-08,8.562738820123002e-16,6.193909583146983e-06,0.999993806090416,4.391652616189793e-18
30025.0,1.1906990491282231e-16,8356.25930136596,0.010000000000000002,0.0005000000000000001,1.8490856181123795e-11,0.0070362937319502815,0.9929636526039473,5.3645611512491615e-08,7.590416359050178e-16,5.908050845176832e-06,0.9999940919491541,3.996912055219961e-18
30275.0,1.0654964493326699e-16,8338.49595881241,0.010000000000000002,0.0005000000000000001,1.6634457137703664e-11,0.006796809462295104,0.9932031377282364,5.27928341660562e-08,6.673485357371636e-16,5.604341670150093e-06,0.9999943956583293,3.733712570637742e-18
30525.0,9.534589654470015e-17,8336.516882336167,0.010000000000000002,0.0005000000000000001,1.4175905182693893e-11,0.006335703425120849,0.9936642402550466,5.630565663320918e-08,5.648651940508513e-16,5.1810895786593e-06,0.9999948189104207,3.955800944967375e-18
30775.0,8.532022789570408e-17,8368.058250539756,0.010000000000000002,0.0005000000000000001,1.0807250338129241e-11,0.005487993151223552,0.9945119357861443,7.105182487422942e-08,4.424623769784634e-16,4.543057868545802e-06,0.999995456942131,5.461054386662598e-18
31025.0,7.63487633131863e-17,8344.00119928836,0.010000000000000002,0.0005000000000000001,9.849125905818015e-12,0.00534689199682757,0.9946530398764742,6.811684906650882e-08,3.9180638406439323e-16,4.333812736235284e-06,0.9999956661872634,4.881548591296404e-18
31275.0,6.832065271295936e-17,8319.818221951016,0.010000000000000002,0.0005000000000000001,9.041960500340168e-12,0.005234380003707545,0.9947655550572888,6.492996176304884e-08,3.4923648839131246e-16,4.150190758747024e-06,0.9999958498092408,4.335163056510045e-18
31525.0,6.113670195255989e-17,8304.944880280276,0.010000000000000002,0.0005000000000000001,8.021429875282926e-12,0.00501002151784747,0.9949899134814136,6.499271741755636e-08,3.0372629960856207e-16,3.909451574004509e-06,0.9999960905484256,4.152378092039964e-18
31775.0,5.4708147203153835e-17,8300.19076569249,0.010000000000000002,0.0005000000000000001,6.843881526763107e-12,0.004673764589664833,0.9953261666957723,6.870771881586971e-08,2.567712282194858e-16,3.6139538362685042e-06,0.9999963860461634,4.325976570656116e-18
32025.0,4.895555819684887e-17,8280.602145126297,0.010000000000000002,0.0005000000000000001,6.173341039065561e-12,0.004522735088296321,0.9954771978140109,6.709151949027778e-08,2.259366779126253e-16,3.431410696831119e-06,0.999996568589303,3.986055747801816e-18
