velocity,density,temperature,si,ca,si0,si1,si2,si3,ca0,ca1,ca2,ca3
12937.5,2.541277005499972e-13,14765.220278274905,0.5,0.0,2.3886606012197716e-14,5.406286171358123e-06,0.48986678326910804,0.5101095772546708,,,,
13062.5,2.27406045894926e-13,15011.436643429864,0.5,0.0,2.266664669113248e-14,5.204433026762184e-06,0.44995636811702394,0.550011744297407,,,,
13312.5,2.0349418657487557e-13,14757.275241133073,0.5,0.0,4.5439639648726854e-14,9.651894245530186e-06,0.5916096578863951,0.40837121361253503,,,,
13562.5,1.8209667120681525e-13,13976.138542026674,0.5,0.0,1.6549727006372126e-13,2.8285790904196066e-05,0.8593226375893614,0.14064861850403915,,,,
13812.5,1.6294911526822446e-13,12735.110449167038,0.5,0.0,1.097233822890085e-12,0.00011251475777280033,0.9879053453698595,0.011982138759052127,,,,
14062.5,1.4581493440119145e-13,11845.65490980687,0.050890585241730284,0.0005089058524173028,5.028396954540659e-12,0.00032454221751515355,0.9983429827005044,0.0013324750708699074,5.312397985216452e-15,2.909876602826272e-06,0.9999970899939497,1.2944214920076396e-10
14312.5,1.3048242121121783e-13,11711.207163173993,0.050890585241730284,0.0005089058524173028,6.4374626579277424e-12,0.0003959170473374633,0.9987026721478837,0.0009014107959079487,6.141560643682665e-15,3.312972467842905e-06,0.9999966869557443,7.178170823902643e-11
14562.5,1.1676212944208938e-13,11604.11872380085,0.050890585241730284,0.0005089058524173028,7.71014121301298e-12,0.00046197887468841695,0.9988775699571384,0.0006604511592917481,6.766866632064012e-15,3.6500171946706634e-06,0.9999963499380541,4.4744458868754045e-11
14812.5,1.0448453320606487e-13,11590.421018705785,0.050890585241730284,0.0005089058524173028,8.235422003763131e-12,0.0004990281267159131,0.9989035335909314,0.0005974382731742632,7.050604549396044e-15,3.848771298245447e-06,0.9999961511891376,3.955697547861573e-11
15062.5,9.349793234718112e-14,11499.306854759856,0.050890585241730284,0.0005089058524173028,9.56968149852924e-12,0.0005705449367239168,0.9989736211769163,0.00045583387629088534,7.615654664498194e-15,4.178493610359098e-06,0.9999958214801528,2.6229297936063835e-11
15312.5,8.366657805665178e-14,11364.19704883818,0.050890585241730284,0.0005089058524173028,1.2256196397947067e-11,0.0006956478254187214,0.9989999877161629,0.0003043644459689575,8.79050256015139e-15,4.744054019685273e-06,0.9999952559317931,1.4178473551943806e-11
15562.5,7.486899558074395e-14,11299.89081442671,0.050890585241730284,0.0005089058524173028,1.3784765209420205e-11,0.0007779155263246103,0.99897612040504,0.00024596405473321074,9.341366871605813e-15,5.081566351049041e-06,0.9999949184233065,1.0333143366300865e-11
15812.5,6.69964832967591e-14,11195.46832320736,0.050890585241730284,0.0005089058524173028,1.6350942167482533e-11,0.0009013641844291422,0.9989186030803695,0.00018003271879417007,1.0197934223053975e-14,5.55440623710393e-06,0.9999944455873633,6.389350524324127e-12
16062.5,5.995176961192406e-14,11060.323773374519,0.050890585241730284,0.0005089058524173028,1.984259235642166e-11,0.0010606969193734865,0.9988160974201865,0.00012320564057478333,1.1166738239222915e-14,6.101211452985676e-06,0.9999938987850336,3.5022814543928977e-12
16312.5,5.3647811090035056e-14,10935.310513405377,0.050890585241730284,0.0005089058524173028,2.412192982373362e-11,0.0012491921552652268,0.998665632636069,8.517518453432585e-05,1.2307063720346225e-14,6.7204059577712645e-06,0.9999932795920679,1.9620031140135076e-12
16562.5,4.800671695568517e-14,10840.25967838042,0.050890585241730284,0.0005089058524173028,2.8374508565618515e-11,0.0014389084076454094,0.9984981126154291,6.297894854646326e-05,1.337766776889838e-14,7.314609137339427e-06,0.9999926853896176,1.231733868434945e-12
16812.5,4.295878668740975e-14,10750.191817680849,0.050890585241730284,0.0005089058524173028,3.3084145759549995e-11,0.0016476987518148636,0.9983051965659825,4.710464911615942e-05,1.4457513256222687e-14,7.927230596822589e-06,0.9999920727686017,7.868469039692771e-13
17062.5,3.844164880839298e-14,10618.766391178942,0.050890585241730284,0.0005089058524173028,4.0444623211255335e-11,0.0019474827924643404,0.9980208139401989,3.170322689112805e-05,1.5915018341729364e-14,8.729707381751882e-06,0.9999912702921832,4.1926171435514347e-13
17312.5,3.4399490233762105e-14,10510.933835046388,0.050890585241730284,0.0005089058524173028,4.8854902706563395e-11,0.002282660026802004,0.9976950411867151,2.229873762753789e-05,1.756292254414971e-14,9.599511974693381e-06,0.9999904004877653,2.4230221219336596e-13
17562.5,3.0782366652398595e-14,10351.00929688091,0.050890585241730284,0.0005089058524173028,6.439466161706963e-11,0.0028348280341240623,0.9971517635249737,1.3408376507493014e-05,2.0328877997689105e-14,1.0936465566642806e-05,0.999989063534305,1.0819720509048054e-13
17812.5,2.7545585422446264e-14,10220.930624164748,0.050890585241730284,0.0005089058524173028,8.077634895888029e-11,0.003406560512727738,0.9965847063969028,8.733009593197384e-06,2.2854406259202797e-14,1.2198400118411201e-05,0.9999878015998037,5.493334465136849e-14
18062.5,2.464915335566515e-14,10058.701919900375,0.050890585241730284,0.0005089058524173028,1.119915120038898e-10,0.004371573217183848,0.995623458582641,4.968088183638301e-06,2.7596093675400944e-14,1.4265133093052031e-05,0.9999857348668566,2.2711765796956744e-14
18312.5,2.2057282567535988e-14,9865.36034308368,0.050890585241730284,0.0005089058524173028,1.671442248668192e-10,0.005887259165193117,0.9941102388088313,2.5018588313770156e-06,3.487143042626179e-14,1.7220839051428903e-05,0.9999827791609059,7.718036772223836e-15
18562.5,1.973794828747372e-14,9669.701469833397,0.050890585241730284,0.0005089058524173028,2.539112217769839e-10,0.008018283025573484,0.9919804974003343,1.2193201808889133e-06,4.455854994968145e-14,2.0948176486321962e-05,0.9999790518234666,2.487704160534322e-15
18812.5,1.7662493165517183e-14,9383.253281590178,0.050890585241730284,0.0005089058524173028,5.087740333079322e-10,0.013088023019569508,0.9869115802080413,3.962636151863063e-07,6.87769555407867e-14,2.89549010168383e-05,0.999971045098914,4.2872150819355893e-16
19062.5,1.5805273186368752e-14,9097.603752645491,0.010000000000000002,0.0005000000000000001,1.0929185470991826e-09,0.022225867887948073,0.9777740128284655,1.1819066777384999e-07,1.12620599134159e-13,4.143204508736997e-05,0.9999585679547999,6.55169923333107e-17
19312.5,1.4143340815749032e-14,9048.851487438842,0.010000000000000002,0.0005000000000000001,1.1517615764077808e-09,0.02379681852245799,0.976203082572815,9.77529655071913e-08,1.1292985255139639e-13,4.269921512212067e-05,0.9999573007847649,4.811202422381172e-17
19562.5,1.2656161464070822e-14,9004.840947430894,0.010000000000000002,0.0005000000000000001,1.209186892522502e-09,0.02541424592448742,0.9745856709925276,8.1873798181576e-08,1.1329377404330457e-13,4.397841187527409e-05,0.9999560215880114,3.6158083139554624e-17
19812.5,1.1325359764099596e-14,8943.16882258649,0.010000000000000002,0.0005000000000000001,1.290036023525888e-09,0.027431668105741987,0.9725682657348864,6.486933561689987e-08,1.1352184028240106e-13,4.541715327688719e-05,0.9999545828466097,2.4573184107209568e-17
20062.5,1.0134492527644325e-14,8899.574659676726,0.010000000000000002,0.0005000000000000001,1.3321777160420448e-09,0.028983738463185405,0.9710162053522984,5.485233850806903e-08,1.120091494612828e-13,4.632192943762287e-05,0.9999536780704503,1.8616682221396398e-17
20312.5,9.068845575966058e-15,8898.069544291438,0.010000000000000002,0.0005000000000000001,1.2135041074413098e-09,0.0282214906795857,0.9717784519801447,5.612676546949037e-08,1.0152343754135397e-13,4.458610789323212e-05,0.9999554138920052,1.8949519719321218e-17
20562.5,8.115251933570281e-15,8858.585413095378,0.010000000000000002,0.0005000000000000001,1.2167122788082973e-09,0.029253780322818435,0.9707461695743627,4.888610661230408e-08,9.761075046105314e-14,4.4753234621993996e-05,0.9999552467652805,1.4921875102959055e-17
20812.5,7.261929139012919e-15,8865.216469682215,0.010000000000000002,0.0005000000000000001,1.0787229573432573e-09,0.027987447784964183,0.9720124991258058,5.201050713166451e-08,8.674627493087571e-14,4.251192991885063e-05,0.9999574880699944,1.6117881035742786e-17
21062.5,6.498333662556294e-15,8823.867167637689,0.010000000000000002,0.0005000000000000001,1.1047430295517935e-09,0.02941300210411046,0.9705869523981703,4.439297623711938e-08,8.499176104453942e-14,4.316036634578381e-05,0.9999568396335692,1.2372310435188956e-17
21312.5,5.8150306318814175e-15,8787.98220129093,0.010000000000000002,0.0005000000000000001,1.0908462352339582e-09,0.030188053870526477,0.9698119056700276,3.936859964397098e-08,8.07102028831751e-14,4.297901989230543e-05,0.999957020980027,9.994235111509814e-18
21562.5,5.203577256206519e-15,8792.54372783351,0.010000000000000002,0.0005000000000000001,9.631954200535347e-10,0.02880696952168601,0.9711929877208556,4.179426301806139e-08,7.12496777670332e-14,4.068022907450526e-05,0.9999593197708542,1.0715689974849151e-17
21812.5,4.656418508417915e-15,8766.006273124833,0.010000000000000002,0.0005000000000000001,9.191314876071637e-10,0.028916832762026685,0.9710831274724488,3.884639294251804e-08,6.596437285303699e-14,3.983735168421059e-05,0.9999601626482497,9.286225287855684e-18
22062.5,4.1667937762768275e-15,8731.595865445264,0.010000000000000002,0.0005000000000000001,8.926013958754949e-10,0.029361757699023366,0.9706382064664851,3.494189005164047e-08,6.16748794951642e-14,3.929979006517579e-05,0.9999607002098732,7.626840336115453e-18
22312.5,3.728653329298425e-15,8712.153703896129,0.010000000000000002,0.0005000000000000001,8.345263373323239e-10,0.029084071406813444,0.9709158942402403,3.351841988092289e-08,5.6309973723737636e-14,3.811942841693417e-05,0.9999618805715268,6.941997511687117e-18
22562.5,3.336583569180362e-15,8717.503770458352,0.010000000000000002,0.0005000000000000001,7.203631367908078e-10,0.027349026761799605,0.9726509362942034,3.6223633905352826e-08,4.8619267835586725e-14,3.5606888343146444e-05,0.9999643931116083,7.592323014311228e-18
22812.5,2.985740140185964e-15,8692.96220559151,0.010000000000000002,0.0005000000000000001,6.873515689504963e-10,0.027451862593299403,0.9725481029167631,3.3802585942119925e-08,4.506108431929026e-14,3.4876920348044726e-05,0.9999651230796068,6.6327846239577274e-18
23062.5,2.6717880730041475e-15,8694.544709567681,0.010000000000000002,0.0005000000000000001,5.960036768195104e-10,0.02589014114206506,0.9741098222029759,3.6058955240575516e-08,3.8934819352265466e-14,3.261573254700383e-05,0.999967384267414,7.09056974202862e-18
23312.5,2.3908482225122977e-15,8671.826002401056,0.010000000000000002,0.0005000000000000001,5.524179194810655e-10,0.025503110161198765,0.9744968547994696,3.4486913687620326e-08,3.5127331465215136e-14,3.1437131894448567e-05,0.9999685628680705,6.375394632287528e-18
23562.5,2.1394493376351443e-15,8641.164643580449,0.010000000000000002,0.0005000000000000001,5.319498740109076e-10,0.025754092451870877,0.9742458755657524,3.14504269241308e-08,3.265487168199415e-14,3.0886179477557716e-05,0.9999691138204898,5.351160159942897e-18
23812.5,1.9144851710819647e-15,8619.473125474606,0.010000000000000002,0.0005000000000000001,4.942633727324994e-10,0.0254094672058661,0.9745905022141045,3.0085766018629736e-08,2.9550717802925684e-14,2.981705063580302e-05,0.9999701829493346,4.8223507386945944e-18
24062.5,1.713176099016276e-15,8614.984884420524,0.010000000000000002,0.0005000000000000001,4.3291885829239184e-10,0.02412232853476421,0.9758776396707023,3.13616147319799e-08,2.5637835029692037e-14,2.7984475817723586e-05,0.9999720155241566,4.956975964900434e-18
24312.5,1.5330347764364953e-15,8607.00410432296,0.010000000000000002,0.0005000000000000001,3.876749127263771e-10,0.023232001644937043,0.9767679660727823,3.189460586556869e-08,2.2652439170427785e-14,2.6564427591033017e-05,0.9999734355723864,4.925585635629339e-18
24562.5,1.3718354039104368e-15,8602.547709560404,0.010000000000000002,0.0005000000000000001,3.398941892386355e-10,0.022068287401255906,0.9779316790406083,3.321824149465079e-08,1.9668649676027546e-14,2.4942477382789264e-05,0.9999750575225976,5.059475975477263e-18
24812.5,1.2275862259280359e-15,8580.786038519462,0.010000000000000002,0.0005000000000000001,3.0970553037312194e-10,0.021498896154681077,0.978501071351594,3.2184019408218425e-08,1.7460702998666505e-14,2.381163102044856e-05,0.9999761883689621,4.614125751994006e-18
25062.5,1.0985049210660464e-15,8567.858503926967,0.010000000000000002,0.0005000000000000001,2.809490806896438e-10,0.020880859903499294,0.9791191078096814,3.200587029226809e-08,1.55499035494419e-14,2.2731059741162602e-05,0.9999772689402433,4.423258267288834e-18
25312.5,9.829965798891737e-16,8583.880057181626,0.010000000000000002,0.0005000000000000001,2.3093208352098052e-10,0.01901405419267947,0.9809859088019889,3.6774399446590346e-08,1.2911394575812632e-14,2.0702585491030268e-05,0.9999792974144961,5.297920692811052e-18
25562.5,8.796339984859442e-16,8570.219344294512,0.010000000000000002,0.0005000000000000001,2.062903211899398e-10,0.01828359096184943,0.981716371946093,3.6885767310163585e-08,1.1322064747031172e-14,1.9588620600860218e-05,0.9999804113793878,5.1123053042511e-18
25812.5,7.871400441490932e-16,8524.01995977502,0.010000000000000002,0.0005000000000000001,2.0302497324648556e-10,0.0187332177533056,0.9812667503086863,3.173498320725657e-08,1.0596665972643425e-14,1.938785300392285e-05,0.9999806121469855,3.871469577095096e-18
26062.5,7.043718753134748e-16,8547.921782531983,0.010000000000000002,0.0005000000000000001,1.6291340130765486e-10,0.0167901292780208,0.9832098327018873,3.785717842381882e-08,8.654892820856868e-15,1.745780227074151e-05,0.9999825421977206,4.922022189850714e-18
26312.5,6.303068207753985e-16,8511.491212268438,0.010000000000000002,0.0005000000000000001,1.563519999977887e-10,0.016921787213326073,0.9830781786324706,3.399785143919337e-08,7.972175717636632e-15,1.708316868837597e-05,0.9999829168313036,3.994088467687501e-18
26562.5,5.640297437190854e-16,8523.495134923178,0.010000000000000002,0.0005000000000000001,1.2878783003182177e-10,0.015428806547665727,0.9845711547373441,3.858620228924326e-08,6.609433956800525e-15,1.555681275714536e-05,0.9999844431872362,4.677691362999456e-18
26812.5,5.047217344220648e-16,8494.201868939806,0.010000000000000002,0.0005000000000000001,1.2056148828125645e-10,0.015298458751005571,0.9847015052152527,3.591318020670185e-08,5.980208285711222e-15,1.5042252050227672e-05,0.9999849577479438,4.00999567689535e-18
27062.5,4.516499919282499e-16,8473.20662683138,0.010000000000000002,0.0005000000000000001,1.101464969847441e-10,0.014928863482300068,0.985071101668272,3.47392814609849e-08,5.322990971272505e-15,1.438069675708821e-05,0.9999856193032376,3.654120205534762e-18
27312.5,4.0415876966813294e-16,8443.215797944282,0.010000000000000002,0.0005000000000000001,1.0411039109697094e-10,0.014896198585993578,0.9851037692823748,3.202752120041074e-08,4.8562983184411445e-15,1.3975216278924097e-05,0.9999860247837162,3.093990987370771e-18
27562.5,3.6166127315155164e-16,8424.468014899317,0.010000000000000002,0.0005000000000000001,9.38260547621353e-11,0.014407328090831641,0.9855926403725084,3.144283386937089e-08,4.274343812453832e-15,1.3267632506454e-05,0.9999867323674893,2.8775735300424767e-18
27812.5,3.2363240962210097e-16,8418.891527022231,0.010000000000000002,0.0005000000000000001,8.174966685018151e-11,0.013628273771780166,0.9863716934055222,3.274094794639878e-08,3.6832211968891236e-15,1.2404441475767918e-05,0.9999875955585206,2.9454601465257252e-18
28062.5,2.896023000890045e-16,8424.67308173069,0.010000000000000002,0.0005000000000000001,6.826215249857494e-11,0.01253660712252407,0.9874633566080486,3.620116519254728e-08,3.077311406578414e-15,1.1361583466698288e-05,0.9999886384165302,3.3055840744913534e-18
28312.5,2.5915047357208356e-16,8428.816150793893,0.010000000000000002,0.0005000000000000001,5.700112016966154e-11,0.011532501380434835,0.9884674587211916,3.98413725371146e-08,2.567679826688938e-15,1.0402195128327541e-05,0.9999895978048691,3.6757409458749325e-18
28562.5,2.319006718247571e-16,8405.736546482842,0.010000000000000002,0.0005000000000000001,5.218285173186679e-11,0.011269119592956067,0.9887308421285839,3.822627731002687e-08,2.285361088310083e-15,9.949550835598596e-06,0.9999900504491621,3.300126761066692e-18
28812.5,2.0751620034302264e-16,8390.767108313916,0.010000000000000002,0.0005000000000000001,4.6472609851025873e-11,0.010814117319214923,0.9891858444319878,3.820232470147191e-08,1.9948846181085566e-15,9.39228554844112e-06,0.9999906077144496,3.1570273077573826e-18
29062.5,1.856957682181596e-16,8381.650609793596,0.010000000000000002,0.0005000000000000001,4.05519942663916e-11,0.010239372450213571,0.9897605881744606,3.9334773867461316e-08,1.7162985904415824e-15,8.780141809611262e-06,0.9999912198581886,3.1635270504180858e-18
29312.5,1.6616976543099967e-16,8385.071561910956,0.010000000000000002,0.0005000000000000001,3.4307654325570093e-11,0.009499081930896118,0.9905008752254743,4.2809321807654845e-08,1.4485974428079423e-15,8.09325394620118e-06,0.9999919067460524,3.472490421051316e-18
29562.5,1.4869693159056714e-16,8375.163816086537,0.010000000000000002,0.0005000000000000001,3.011807976304249e-11,0.00902951372754562,0.9909704424484925,4.3793843855960484e-08,1.2524355068331154e-15,7.588582939785296e-06,0.999992411417059,3.4494485688936963e-18
29812.5,1.3306137495651124e-16,8351.66936528285,0.010000000000000002,0.0005000000000000001,2.7550114014867084e-11,0.008818766190830109,0.9911811918270874,4.195453241624416e-08,1.1132856090431257e-15,7.25400604330881e-06,0.9999927459939555,3.0861902698055624e-18
30062.5,1.1906990491282231e-16,8320.236538278594,0.010000000000000002,0.0005000000000000001,2.598974689411674e-11,0.008789103594415905,0.9912108578977019,3.848189230128337e-08,1.0119886077026562e-15,7.038197733781349e-06,0.9999929618022652,2.5827193380258576e-18
30312.5,1.0654964493326699e-16,8295.540734314822,0.010000000000000002,0.0005000000000000001,2.397250670540547e-11,0.008630942406801852,0.9913690210677173,3.650150851700066e-08,9.05493300960977e-16,6.7559971414954235e-06,0.9999932440028576,2.2778859950973623e-18
30562.5,9.534589654470015e-17,8274.815535865862,0.010000000000000002,0.0005000000000000001,2.1775648552219256e-11,0.008390772240591132,0.9916091923722126,3.536542051648554e-08,8.011683719592543e-16,6.43714127347389e-06,0.9999935628587258,2.075226817904475e-18
30812.5,8.532022789570408e-17,8266.517450597285,0.010000000000000002,0.0005000000000000001,1.892081157146765e-11,0.007922429780414127,0.9920775336321578,3.656850720487667e-08,6.868178797733241e-16,6.0040528672510615e-06,0.999993995947132,2.092098330746617e-18
31062.5,7.63487633131863e-17,8263.996313124082,0.010000000000000002,0.0005000000000000001,1.608011502307471e-11,0.00737200168005699,0.9926279592890599,3.901480293366362e-08,5.793997581443332e-16,5.540383757565816e-06,0.9999944596162418,2.213368159002696e-18
31312.5,6.832065271295936e-17,8247.678081725162,0.010000000000000002,0.0005000000000000001,1.4378386917932638e-11,0.007092969687536559,0.9929069916301695,3.8667915530864786e-08,5.068864651736064e-16,5.2389607790850695e-06,0.9999947610392204,2.0888189299465504e-18
31562.5,6.113670195255989e-17,8230.860428515041,0.010000000000000002,0.0005000000000000001,1.2868393783659045e-11,0.006828609579921413,0.9931713521688051,3.823840493191708e-08,4.436292013777142e-16,4.955788323110789e-06,0.9999950442116765,1.963620298045049e-18
31812.5,5.4708147203153835e-17,8220.919807040837,0.010000000000000002,0.0005000000000000001,1.1216113103899085e-11,0.0064606032427043415,0.9935393574909543,3.9255125215622924e-08,3.8087978895644142e-16,4.628262915932165e-06,0.9999953717370836,1.9554798278336545e-18
32062.5,4.895555819684887e-17,8218.866293133779,0.010000000000000002,0.0005000000000000001,9.492257596352746e-12,0.005995019536587578,0.9940049384086409,4.204527921587078e-08,3.2015558398815983e-16,4.26137819590665e-06,0.9999957386218037,2.0798730686253256e-18
