velocity,density,temperature,si,ca,si0,si1,si2,si3,ca0,ca1,ca2,ca3
13137.5,1.35800432130867e-13,13629.813533890614,0.5,0.0,6.776746476284367e-14,1.727043780083569e-05,0.8427477435618913,0.15723452601868387,,,,
13362.5,1.2152094885707688e-13,13356.352356869536,0.5,0.0,1.2654403965407842e-13,2.8283755652643635e-05,0.9157828505773348,0.08418876740210868,,,,
13612.5,1.0874296038243405e-13,12603.162600122014,0.5,0.0,4.277836309073114e-13,6.8918937875084e-05,0.9833601354174026,0.01657094372678601,,,,
13862.5,9.730858377877931e-14,11553.6059482468,0.5,0.0,2.5895694577075053e-12,0.00024034118309239303,0.998571579569172,0.0011880792415220906,,,,
14112.5,8.707653758671528e-14,10819.250530750718,0.04113110539845759,0.0005141388174807199,1.1711548569142505e-11,0.0006768918235340351,0.999190679068166,0.00013242909656821918,5.917143433088362e-15,3.921536666717557e-06,0.9999960784607952,2.532087267331531e-12
14362.5,7.792039616287332e-14,10745.255616014343,0.04113110539845759,0.0005141388174807199,1.4291873222655422e-11,0.0007980117615713456,0.9991031399888194,9.884823530712728e-05,6.7534762220048104e-15,4.399523489220457e-06,0.9999956004748449,1.6590368733818067e-12
14612.5,6.972702758343753e-14,10631.29200243766,0.04113110539845759,0.0005141388174807199,1.7701379478903708e-11,0.0009509472239350295,0.9989810466365384,6.800612182093137e-05,7.586754085257982e-15,4.91133299786438e-06,0.9999950886660631,9.314890048946772e-13
14862.5,6.239519580289279e-14,10563.331219185622,0.04113110539845759,0.0005141388174807199,2.102499060540367e-11,0.0011013387904063527,0.9988466728203468,5.198836821964127e-05,8.469318628113634e-15,5.427116744568269e-06,0.9999945728826177,6.291534869127106e-13
15112.5,5.583430979647963e-14,10537.033284049607,0.04113110539845759,0.0005141388174807199,2.2015425596598557e-11,0.0011739972729029235,0.9987795461878316,4.645651724813005e-05,8.630780884051926e-15,5.641138936262474e-06,0.9999943588605198,5.353613832375676e-13
15362.5,4.9963304230944105e-14,10425.63824535907,0.04113110539845759,0.0005141388174807199,2.7084122224392348e-11,0.0013925910772786313,0.9985754113379471,3.1997557689374646e-05,9.640822291772421e-15,6.267754488148469e-06,0.9999937322452023,2.999931287085647e-13
15612.5,4.470963783331785e-14,10345.234253496901,0.04113110539845759,0.0005141388174807199,3.173205575997205e-11,0.001599026734155624,0.9983769720556905,2.400117842151728e-05,1.0510628348723943e-14,6.8322461777738575e-06,0.9999931677536185,1.9330064314985135e-13
15862.5,4.0008397081721133e-14,10266.234187194475,0.04113110539845759,0.0005141388174807199,3.7554373478823055e-11,0.0018480560787727657,0.9981340561617295,1.788772194325033e-05,1.1580453051400896e-14,7.49169157472785e-06,0.9999925083082899,1.2379633983876343e-13
16112.5,3.580149414352543e-14,10227.603911730814,0.04113110539845759,0.0005141388174807199,3.966766406576176e-11,0.0019818606667027874,0.9980026601264851,1.547916714439478e-05,1.1783960984788101e-14,7.785055827944936e-06,0.999992214944061,9.934222704318668e-14
16362.5,3.203694915071928e-14,10143.203125916596,0.04113110539845759,0.0005141388174807199,4.4807845590526483e-11,0.002222384897128298,0.9977658808028339,1.1734255229862718e-05,1.2345454916630813e-14,8.284748925392121e-06,0.9999917152509984,6.382918193666416e-14
16612.5,2.866824794437767e-14,10020.532466578748,0.04113110539845759,0.0005141388174807199,5.5075613440298107e-11,0.002634931786841922,0.9973572850820448,7.78307603766817e-06,1.3608904304126517e-14,9.139959361845685e-06,0.9999908600405915,3.314413807143052e-14
16862.5,2.565376735262142e-14,9926.303163723878,0.04113110539845759,0.0005141388174807199,6.69443080651992e-11,0.0030992032658857583,0.9968953228277486,5.4738394211835924e-06,1.5172417320667544e-14,1.0107743024637789e-05,0.999989892256941,1.9230000507069813e-14
17112.5,2.295626090088608e-14,9872.151051935014,0.04113110539845759,0.0005141388174807199,7.106479117853823e-11,0.0033352780392415923,0.9966601698494406,4.552040253065205e-06,1.5306205594607355e-14,1.0465884652967022e-05,0.9999895341153175,1.4290404181179162e-14
17362.5,2.0542398600013058e-14,9803.834837416738,0.04113110539845759,0.0005141388174807199,8.042940145372809e-11,0.0037430572693045953,0.9962534230213926,3.5196288734054604e-06,1.6243254706499217e-14,1.1191570267193449e-05,0.999988808429707,9.57246098695317e-15
17612.5,1.8382355125852838e-14,9727.875980692475,0.04113110539845759,0.0005141388174807199,9.067677771594048e-11,0.00419072894906926,0.9958065909460714,2.68001418258699e-06,1.705459625767403e-14,1.1904897461716764e-05,0.9999880951025152,6.2011423273408824e-15
17862.5,1.6449441301988613e-14,9581.384449782427,0.04113110539845759,0.0005141388174807199,1.214711457694814e-10,0.0052554222364621745,0.994743015723987,1.5619180796240929e-06,1.9942066116501047e-14,1.3653130817182268e-05,0.9999863468691603,2.629979715801942e-15
18112.5,1.471977433223567e-14,9448.074719406599,0.04113110539845759,0.0005141388174807199,1.6193464005192933e-10,0.006567779048584953,0.9934312900521002,9.307373801958144e-07,2.3418825432406756e-14,1.566972928009249e-05,0.9999843302706953,1.163745777783563e-15
18362.5,1.317198270835798e-14,9286.746175117962,0.04113110539845759,0.0005141388174807199,2.3931370813400964e-10,0.008779915245217191,0.9912196031513837,4.813640853453083e-07,2.9601313826951456e-14,1.8881366351213852e-05,0.9999811186336187,4.153500941707141e-16
18612.5,1.1786942146886184e-14,9137.762207657513,0.04113110539845759,0.0005141388174807199,3.3950428507918437e-10,0.011424975700865935,0.988574764178664,2.5978096582392337e-07,3.623283812623939e-14,2.2287910776564635e-05,0.999977712089187,1.5739492056173275e-16
18862.5,1.0547539292310597e-14,8867.914239458478,0.04113110539845759,0.0005141388174807199,6.841500922878804e-10,0.018699661337335572,0.981300257071039,8.090747553642923e-08,5.545235832926596e-14,3.073380184722956e-05,0.9999692661980972,2.5139338235186618e-17
19112.5,9.438460267001953e-15,8613.699569917084,0.010000000000000002,0.0005000000000000001,1.427315435968414e-09,0.03110086250388572,0.968899111538854,2.4529944962471214e-08,8.841048414799389e-14,4.327609249472173e-05,0.9999567239074169,3.930369357271205e-18
19362.5,8.446001455213301e-15,8566.53192564198,0.010000000000000002,0.0005000000000000001,1.536437242671048e-09,0.033749669889970794,0.9662503087859312,1.9787660726804636e-08,9.054022730789355e-14,4.517010486304328e-05,0.9999548298950464,2.7916014998888483e-18
19612.5,7.557900183238676e-15,8499.384886816753,0.010000000000000002,0.0005000000000000001,1.7118675629313958e-09,0.03745655927231499,0.9625434242869305,1.4728886986265287e-08,9.37941610934466e-14,4.7675875399347764e-05,0.999952324124507,1.7296635079573099e-18
19862.5,6.76318320363784e-15,8486.887640936215,0.010000000000000002,0.0005000000000000001,1.6238151154754342e-09,0.037442732299229564,0.9625572518537201,1.4223235191614296e-08,8.779315065338967e-14,4.686082385313323e-05,0.999953139176059,1.612001486794201e-18
20112.5,6.052031111420199e-15,8491.178725990554,0.010000000000000002,0.0005000000000000001,1.4473235082378042e-09,0.035948686032250605,0.9640512974995681,1.5020857784789535e-08,7.858693200699408e-14,4.470893095779958e-05,0.9999552910689635,1.7197602132631558e-18
20362.5,5.4156570169349715e-15,8489.306987390246,0.010000000000000002,0.0005000000000000001,1.311297835108692e-09,0.03488380518510434,0.9651161780855092,1.5418088644437636e-08,7.100270707365357e-14,4.29466964903717e-05,0.9999570533034385,1.753378094438602e-18
20612.5,4.846197976367382e-15,8439.32675938716,0.010000000000000002,0.0005000000000000001,1.3608724993143345e-09,0.03697557963111846,0.9630244064017018,1.2606307271425708e-08,6.971660113660974e-14,4.376801286040603e-05,0.9999562319870698,1.2469405099488899e-18
20862.5,4.336617838372491e-15,8412.649155292955,0.010000000000000002,0.0005000000000000001,1.3151000758721521e-09,0.037418625511209606,0.9625813616295107,1.1544179656311242e-08,6.535670507065345e-14,4.3194460297653055e-05,0.999956805539637,1.0583097034297577e-18
21112.5,3.880620306433966e-15,8401.955829240054,0.010000000000000002,0.0005000000000000001,1.208747351405372e-09,0.03665520131681725,0.963344786029678,1.144475737802899e-08,5.92846215616212e-14,4.166894988058841e-05,0.9999583310500602,1.0163749223834027e-18
21362.5,3.472571142759336e-15,8395.209703917148,0.010000000000000002,0.0005000000000000001,1.097757911805491e-09,0.03562907456177127,0.9643709127732923,1.1567178417339478e-08,5.335490603116505e-14,3.99780331889842e-05,0.9999600219667577,1.0061125962349357e-18
21612.5,3.1074285524743983e-15,8382.625757250365,0.010000000000000002,0.0005000000000000001,1.016026145161117e-09,0.03506060856224032,0.9649393790730814,1.1348652197831443e-08,4.861925679174161e-14,3.868540391780432e-05,0.9999613145960335,9.510892565840382e-19
21862.5,2.78068088795448e-15,8386.48332679488,0.010000000000000002,0.0005000000000000001,8.930311676473205e-10,0.03336215694226848,0.9666378300787304,1.2085970019707446e-08,4.281994579453685e-14,3.656394862121687e-05,0.999963436051336,1.0220191859035454e-18
22112.5,2.4882909035763055e-15,8342.031219814666,0.010000000000000002,0.0005000000000000001,9.076693299860105e-10,0.03489135219642108,0.9651086367441495,1.0151760155661908e-08,4.137657826005843e-14,3.6874695449833415e-05,0.9999631253045089,7.557413910194872e-19
22362.5,2.226645872110562e-15,8348.300075350757,0.010000000000000002,0.0005000000000000001,7.79803010348175e-10,0.03271489812012546,0.967285090039435,1.1060636689048194e-08,3.5695444046088765e-14,3.4415458031597014e-05,0.9999655845419327,8.363899801399691e-19
22612.5,1.9925129464007527e-15,8338.941268874536,0.010000000000000002,0.0005000000000000001,7.020732325479373e-10,0.03162236973568988,0.968377618404183,1.1158053836083261e-08,3.172439400251392e-14,3.279708613378791e-05,0.9999672029138346,8.19908066544486e-19
22862.5,1.782999214783745e-15,8325.851991569143,0.010000000000000002,0.0005000000000000001,6.402043894902818e-10,0.03082078130195354,0.9691792070198565,1.1037985633714168e-08,2.843889100950051e-14,3.143845541666682e-05,0.9999685615445549,7.79805445826465e-19
23112.5,1.5955159567028701e-15,8290.387451380557,0.010000000000000002,0.0005000000000000001,6.278146645826074e-10,0.03149494460226743,0.9685050450324211,9.737496796401358e-09,2.6754639739316856e-14,3.115353660672812e-05,0.9999688464633666,6.201907382960653e-19
23362.5,1.4277466568611126e-15,8263.745771770045,0.010000000000000002,0.0005000000000000001,6.017346047170293e-10,0.03170779739038876,0.9682921930631501,8.944726726977758e-09,2.4833296403336534e-14,3.056976713463517e-05,0.9999694302328406,5.264967183971128e-19
23612.5,1.2776183827020777e-15,8241.853534652131,0.010000000000000002,0.0005000000000000001,5.573083399085489e-10,0.03122062679758749,0.9687793641173,8.52780427244367e-09,2.238380163716142e-14,2.9456959245852367e-05,0.9999705430407317,4.699656674573985e-19
23862.5,1.1432761715631618e-15,8219.7657167772,0.010000000000000002,0.0005000000000000001,5.18211808528565e-10,0.030820089543773372,0.9691799018376996,8.10031527195578e-09,2.0249455968265857e-14,2.8446771667306692e-05,0.9999715532283125,4.1759981831071047e-19
24112.5,1.0230601110323173e-15,8213.42037435481,0.010000000000000002,0.0005000000000000001,4.6145658921001324e-10,0.029579082800339974,0.9704209084398674,8.298336100679711e-09,1.7847574093765284e-14,2.695983087077453e-05,0.9999730401691114,4.1907210123571693e-19
24362.5,9.15484829316793e-16,8197.029883919664,0.010000000000000002,0.0005000000000000001,4.221466132138234e-10,0.028891179022511055,0.9711088124535519,8.101790500617113e-09,1.5981427447012513e-14,2.584703645538257e-05,0.9999741529635285,3.890778648107129e-19
24612.5,8.19221142209819e-16,8191.081553682116,0.010000000000000002,0.0005000000000000001,3.7032575487376243e-10,0.02745941110536428,0.9725405801299802,8.39432961403187e-09,1.3880814608393884e-14,2.4285224767639612e-05,0.9999757147752184,3.9526888749454756e-19
24862.5,7.330796298879187e-16,8181.6610373783315,0.010000000000000002,0.0005000000000000001,3.29911970888891e-10,0.02636121150915022,0.9736387796443181,8.516619627173185e-09,1.2195925838006295e-14,2.2989926194879536e-05,0.9999770100737929,3.8922211658168804e-19
25112.5,6.559959406162014e-16,8162.3692588251515,0.010000000000000002,0.0005000000000000001,3.027732137922002e-10,0.025802070135796475,0.9741979213395605,8.22186969944806e-09,1.091851642325467e-14,2.2053573928186474e-05,0.9999779464260609,3.541079231071374e-19
25362.5,5.870176397763603e-16,8143.276515058166,0.010000000000000002,0.0005000000000000001,2.7928814778253263e-10,0.025338501658766027,0.9746614901504385,7.911507228184962e-09,9.825512372165503e-15,2.1218514242187362e-05,0.9999787814857479,3.2124428503194654e-19
25612.5,5.252924417259698e-16,8123.264860255881,0.010000000000000002,0.0005000000000000001,2.5666197615690817e-10,0.024823202020036194,0.9751767901134912,7.609810513547029e-09,8.799594504603578e-15,2.0362722671614647e-05,0.9999796372773195,2.904084302431496e-19
25862.5,4.700576790836399e-16,8099.536418212304,0.010000000000000002,0.0005000000000000001,2.402022865874198e-10,0.024608530230535088,0.9753914623832407,7.1460219575047106e-09,7.99092073620341e-15,1.9717803172480334e-05,0.9999802821968196,2.533816545937583e-19
26112.5,4.2063087932409863e-16,8089.855186825515,0.010000000000000002,0.0005000000000000001,2.137126482854408e-10,0.02360418370532503,0.9763958088363182,7.244644068728136e-09,7.007487778086597e-15,1.8646908638544306e-05,0.9999813530913544,2.489817883563212e-19
26362.5,3.764013322490205e-16,8069.863972230613,0.010000000000000002,0.0005000000000000001,1.9682946290862998e-10,0.023157134109316,0.9768428587416548,6.952199694685131e-09,6.287665717483149e-15,1.7915324066340695e-05,0.9999820846759274,2.24406604859985e-19
26612.5,3.368225441424951e-16,8056.593044145221,0.010000000000000002,0.0005000000000000001,1.7563701387361696e-10,0.02225494738471481,0.9777450454834643,6.9561839240577675e-09,5.507952248787084e-15,1.6946403630205394e-05,0.9999830535963642,2.1519597980939864e-19
26862.5,3.0140548537582406e-16,8037.878478405513,0.010000000000000002,0.0005000000000000001,1.6027009816345536e-10,0.021702102458703236,0.9782978906405184,6.740508098722974e-09,4.903240443436082e-15,1.620223503528e-05,0.9999837977649599,1.9651523020932425e-19
27112.5,2.6971254803004983e-16,8050.663860858258,0.010000000000000002,0.0005000000000000001,1.3163032728327855e-10,0.019755503406046187,0.9802444887401992,7.722124400369643e-09,4.0703057083399815e-15,1.4760884156619569e-05,0.9999852391158393,2.3378116201396013e-19
27362.5,2.4135213887748537e-16,8062.440042705916,0.010000000000000002,0.0005000000000000001,1.0776301265875872e-10,0.017945109103531393,0.982054881953291,8.83541454748622e-09,3.3644096166382987e-15,1.3417430824614935e-05,0.9999865825691721,2.7689656314049144e-19
27612.5,2.1597384091394593e-16,8041.766439266189,0.010000000000000002,0.0005000000000000001,9.898566285453889e-11,0.017574509099634414,0.9824254823298454,8.471534507547337e-09,3.0080928774294327e-15,1.2866654678182136e-05,0.9999871333453187,2.487428907807211e-19
27862.5,1.9326408365827748e-16,8027.207793721054,0.010000000000000002,0.0005000000000000001,8.849081995129442e-11,0.01690923688583573,0.9830907545987294,8.426944118989852e-09,2.63589676007102e-15,1.217688462337017e-05,0.999987823115374,2.3617700051941065e-19
28112.5,1.7294226872205312e-16,8003.665050663669,0.010000000000000002,0.0005000000000000001,8.228409634237623e-11,0.016693105800326343,0.9833068861793526,7.93803686645087e-09,2.377438720689678e-15,1.1745296334532154e-05,0.999988254703663,2.0647360770694283e-19
28362.5,1.5475730277755562e-16,7997.819351817229,0.010000000000000002,0.0005000000000000001,7.166295335253252e-11,0.015788437313986207,0.9842115543631558,8.251195058790962e-09,2.0491904331855864e-15,1.0986230383806551e-05,0.9999890137696141,2.1043726150578323e-19
28612.5,1.3848449508590245e-16,7998.6922064023665,0.010000000000000002,0.0005000000000000001,6.099029555355597e-11,0.01470883286373085,0.9852911581833584,8.891920506858193e-09,1.7390650110181853e-15,1.0167213187060464e-05,0.9999898327868113,2.2708880944584132e-19
28862.5,1.239227812516432e-16,7980.029695493624,0.010000000000000002,0.0005000000000000001,5.536950261032342e-11,0.014294408800261617,0.9857055825060584,8.638310428451978e-09,1.5401546651822158e-15,9.69103007966692e-06,0.9999903089699188,2.0780017871437499e-19
29112.5,1.1089223890094499e-16,7952.92255387114,0.010000000000000002,0.0005000000000000001,5.1955594641739033e-11,0.014195282999381659,0.9858047089563962,7.992266682878467e-09,1.3960957259515531e-15,9.38244014595674e-06,0.9999906175598526,1.7627990042069295e-19
29362.5,9.923186458745801e-17,7949.6803964611945,0.010000000000000002,0.0005000000000000001,4.438630453530164e-11,0.013257519277754906,0.9867424721965828,8.481275900162688e-09,1.1841819836563378e-15,8.68886136549369e-06,0.9999913111386334,1.8491424985191298e-19
29612.5,8.879758445764147e-17,7929.878663045403,0.010000000000000002,0.0005000000000000001,4.054419363924835e-11,0.01293584407748613,0.9870641477123602,8.169609574888331e-09,1.0535349308300224e-15,8.30666785799855e-06,0.999991693332141,1.6705428052648413e-19
29862.5,7.946047409562182e-17,7936.332230656128,0.010000000000000002,0.0005000000000000001,3.358922634339317e-11,0.011840049995542588,0.9881599408510142,9.119853769402493e-09,8.760313507971924e-16,7.586109683708464e-06,0.9999924138903155,1.9013009587836025e-19
30112.5,7.110516555225546e-17,7922.248978063538,0.010000000000000002,0.0005000000000000001,2.9972611492511585e-11,0.011377131529850697,0.9886228593574754,9.08270131274562e-09,7.663897249257697e-16,7.171828961476279e-06,0.9999928281710377,1.8083573654101364e-19
30362.5,6.36284218758801e-17,7901.632986157795,0.010000000000000002,0.0005000000000000001,2.7319436510813894e-11,0.011085565418179554,0.9889144258193331,8.735167923721407e-09,6.797949580968126e-16,6.84597874799246e-06,0.9999931540212513,1.6262113101408622e-19
30612.5,5.693786153186933e-17,7901.407292318984,0.010000000000000002,0.0005000000000000001,2.3202302083573636e-11,0.010312483265360411,0.9896875073218603,9.389576989122223e-09,5.750150468794234e-16,6.32493475812739e-06,0.9999936750652413,1.7449102719922064e-19
30862.5,5.095081695010991e-17,7883.506267392127,0.010000000000000002,0.0005000000000000001,2.0902948474565785e-11,0.009971598533324208,0.9900283922695655,9.176207318973181e-09,5.056952720375789e-16,6.003655883295123e-06,0.9999939963441161,1.6080329649055347e-19
31112.5,4.559331309677957e-17,7876.532232020229,0.010000000000000002,0.0005000000000000001,1.8109374204678682e-11,0.009397862074628371,0.990602128380293,9.526969293517708e-09,4.3304842249453827e-16,5.595940868646232e-06,0.9999944040591309,1.6306470272732083e-19
31362.5,4.0799153449815065e-17,7854.817144876873,0.010000000000000002,0.0005000000000000001,1.662640850692463e-11,0.009200530782420453,0.9907994601226742,9.078279031310383e-09,3.8628327506104436e-16,5.3609576484456584e-06,0.9999946390423511,1.4467113337324783e-19
31612.5,3.6509102084514544e-17,7839.56524348674,0.010000000000000002,0.0005000000000000001,1.48476118217046e-11,0.008845191542044497,0.9911547994497117,8.993396158565845e-09,3.377020536581029e-16,5.067947368771803e-06,0.9999949320526309,1.3623420006026877e-19
31862.5,3.267015176324801e-17,7823.64416760211,0.010000000000000002,0.0005000000000000001,1.3318487604243987e-11,0.00852847096976345,0.9914715201553179,8.861600061607499e-09,2.9627668259124494e-16,4.801696791295735e-06,0.9999951983032084,1.2729966724499335e-19
32112.5,2.923486898590071e-17,7805.527753803515,0.010000000000000002,0.0005000000000000001,1.2051847988632122e-11,0.00827042582389236,0.9917295655463881,8.617667642221824e-09,2.615244726305686e-16,4.568236649875351e-06,0.9999954317633498,1.165270646689806e-19
32362.5,2.6160807908588976e-17,7789.502806193863,0.010000000000000002,0.0005000000000000001,1.0826681585813261e-11,0.007982014687265162,0.9920179768259804,8.475927856377325e-09,2.2971455915293103e-16,4.331470626832919e-06,0.9999956685293729,1.0860225534936171e-19
