velocity,density,temperature,si,ca,si0,si1,si2,si3,ca0,ca1,ca2,ca3
13175.0,1.35800432130867e-13,14227.832849187675,0.5,0.0,2.0096374702690903e-14,6.602467798063462e-06,0.6085005280543344,0.3914868163434536,,,,
13325.0,1.2152094885707688e-13,14000.422992533775,0.5,0.0,3.650959651929224e-14,1.1062850546294933e-05,0.731123098273093,0.26886381901856987,,,,
13575.0,1.0874296038243405e-13,13194.417207222512,0.5,0.0,1.356460261402237e-13,3.108981651273927e-05,0.9334811646351853,0.06648769255871045,,,,
13825.0,9.730858377877931e-14,12038.395190866786,0.5,0.0,8.683145447131757e-13,0.00011591692892349778,0.9950218635734289,0.004862219398589174,,,,
14075.0,8.707653758671528e-14,11224.232519293673,0.050890585241730284,0.0005089058524173028,4.094875705033424e-12,0.00033775735959102314,0.9991490926104933,0.000513150025342969,2.8516492763009624e-15,2.384430315688727e-06,0.9999976155503485,1.9332976802693286e-11
14325.0,7.792039616287332e-14,11113.696748689288,0.050890585241730284,0.0005089058524173028,5.143519864859949e-12,0.0004063637288880614,0.9992360842605312,0.0003575520052319716,3.26745929069238e-15,2.6950858548197314e-06,0.999997304902904,1.1238036906733112e-11
14575.0,6.972702758343753e-14,11014.96447240419,0.050890585241730284,0.0005089058524173028,6.1523517071243514e-12,0.00047337290939461105,0.9992652355357141,0.0002613915486406879,3.598795366852462e-15,2.9677722991219954e-06,0.99999703222073,6.967312033354868e-12
14825.0,6.239519580289279e-14,10900.613408545325,0.050890585241730284,0.0005089058524173028,7.733771809990739e-12,0.000569706168287989,0.9992506218722459,0.00017967195169152583,4.111094576202124e-15,3.3470533393625487e-06,0.9999966529427136,3.943006298190727e-12
15075.0,5.583430979647963e-14,10831.933322253612,0.050890585241730284,0.0005089058524173028,8.783315195749723e-12,0.0006410217862783283,0.9992168698868373,0.0001421083180776123,4.394943064581923e-15,3.6035665590469214e-06,0.9999963964306681,2.7684785416727383e-12
15325.0,4.9963304230944105e-14,10750.027260525067,0.050890585241730284,0.0005089058524173028,1.0031897125386207e-11,0.0007241398042352575,0.9991665476368052,0.00010931254891509864,4.678977527259361e-15,3.8750250906446144e-06,0.9999961249730601,1.844666294257087e-12
15575.0,4.470963783331785e-14,10695.713515780684,0.050890585241730284,0.0005089058524173028,1.0954128145792488e-11,0.0007938935178764708,0.9991154434585932,9.066301256815373e-05,4.863264644115498e-15,4.091437036769914e-06,0.9999959085615696,1.388727266532923e-12
15825.0,4.0008397081721133e-14,10605.250095614121,0.050890585241730284,0.0005089058524173028,1.2770513879952558e-11,0.0009089998588902309,0.9990234691611675,6.753096716766543e-05,5.245799947030565e-15,4.437259614697534e-06,0.9999955627395009,8.791626104835529e-13
16075.0,3.580149414352543e-14,10581.584275539319,0.050890585241730284,0.0005089058524173028,1.3297328662056252e-11,0.0009655244521907947,0.9989736267034247,6.084883108379713e-05,5.322022805763444e-15,4.59648551027839e-06,0.9999954035137265,7.580793755255111e-13
16325.0,3.203694915071928e-14,10432.317400141841,0.050890585241730284,0.0005089058524173028,1.7304621152905993e-11,0.001189019867737535,0.9987732038648061,3.777625015063091e-05,6.1123738003118064e-15,5.214868611068138e-06,0.9999947851310252,3.5760746066668673e-13
16575.0,2.866824794437767e-14,10323.716460544412,0.050890585241730284,0.0005089058524173028,2.1029715928530246e-11,0.0013991219971755129,0.9985746195217479,2.6258460046482878e-05,6.760401478996323e-15,5.752276122042334e-06,0.9999942477236687,2.024876041865802e-13
16825.0,2.565376735262142e-14,10263.815706234891,0.050890585241730284,0.0005089058524173028,2.2900369992709353e-11,0.0015312538230056508,0.9984473286115251,2.1417542568612978e-05,6.96986024076432e-15,6.0413695904313535e-06,0.9999939586302554,1.4715927547103595e-13
17075.0,2.295626090088608e-14,10170.01142362466,0.050890585241730284,0.0005089058524173028,2.6963151013144714e-11,0.0017644778906038858,0.9982199885277947,1.5533554638164686e-05,7.550634904681532e-15,6.566360224081724e-06,0.9999934336396795,8.890500172569831e-14
17325.0,2.0542398600013058e-14,10038.656938032052,0.050890585241730284,0.0005089058524173028,3.31268990956304e-11,0.002091878623285245,0.9978979738272669,1.0147516320968894e-05,8.270209666694852e-15,7.2228939392772805e-06,0.9999927771060078,4.474385893417633e-14
17575.0,1.8382355125852838e-14,9956.24956595182,0.050890585241730284,0.0005089058524173028,3.824478562858876e-11,0.0023790718622536153,0.9976133622434126,7.565856088952895e-06,8.854119474089305e-15,7.781278703647372e-06,0.9999922187212594,2.8212419063149272e-14
17825.0,1.6449441301988613e-14,9823.16727791975,0.050890585241730284,0.0005089058524173028,4.86648112602474e-11,0.002885048128633845,0.9971101923247672,4.759497934350861e-06,9.993471542298378e-15,8.716246569323079e-06,0.9999912837534073,1.347085907432305e-14
18075.0,1.471977433223567e-14,9743.584177571369,0.050890585241730284,0.0005089058524173028,5.582980441512847e-11,0.0032672764582332187,0.9967291651278348,3.5583581022678483e-06,1.0641408656955852e-14,9.354843440975445e-06,0.9999906451565398,8.50670324584456e-15
18325.0,1.317198270835798e-14,9591.829033697484,0.050890585241730284,0.0005089058524173028,7.636012726202048e-11,0.004153852452382499,0.9958441221772838,2.0252939736219187e-06,1.26432747321974e-14,1.0839217675130475e-05,0.9999891607823087,3.4856637531213077e-15
18575.0,1.1786942146886184e-14,9384.849600535312,0.050890585241730284,0.0005089058524173028,1.184090921928549e-10,0.005735435696408044,0.9942636362868982,9.278982847238648e-07,1.611062721321238e-14,1.3220490646304126e-05,0.9999867795093367,1.0035747414759047e-15
18825.0,1.0547539292310597e-14,9124.903452215407,0.050890585241730284,0.0005089058524173028,2.2466684834960383e-10,0.009035751198753734,0.9909639276971814,3.208793980589335e-07,2.3637337034662098e-14,1.7717669645977914e-05,0.9999822823303302,1.88161290382291e-16
19075.0,9.438460267001953e-15,8960.489787222597,0.010000000000000002,0.0005000000000000001,3.48284467930239e-10,0.012404416847240708,0.9875954269871842,1.5581729060259564e-07,3.096080155963809e-14,2.179547960972356e-05,0.9999782045203593,6.096373369677802e-17
19325.0,8.446001455213301e-15,8959.06945788313,0.010000000000000002,0.0005000000000000001,3.175635994775333e-10,0.012082087302630154,0.9879177530406027,1.5933920351471955e-07,2.818050645404705e-14,2.1032731261473126e-05,0.9999789672687103,6.2069427880319e-17
19575.0,7.557900183238676e-15,8914.268815241354,0.010000000000000002,0.0005000000000000001,3.2734660938972233e-10,0.012753526748427321,0.9872463381427711,1.3478145508909495e-07,2.7715981497366926e-14,2.1421701102910845e-05,0.9999785782988694,4.687306362738448e-17
19825.0,6.76318320363784e-15,8869.222768167954,0.010000000000000002,0.0005000000000000001,3.3912616313031635e-10,0.0135063045279874,0.9864935817161012,1.134167851434439e-07,2.7381431702419992e-14,2.1876534625850265e-05,0.9999781234653468,3.5153488397237904e-17
20075.0,6.052031111420199e-15,8845.233979565077,0.010000000000000002,0.0005000000000000001,3.255984764002228e-10,0.013609853248072273,0.9863900406023393,1.058239900810303e-07,2.5618154385050458e-14,2.1549001283910034e-05,0.9999784509986904,3.082027039299915e-17
20325.0,5.4156570169349715e-15,8780.237533821268,0.010000000000000002,0.0005000000000000001,3.523107062410382e-10,0.014830966413843991,0.9851689512054976,8.202834769624408e-08,2.5868172532008645e-14,2.238047206336656e-05,0.9999776195279108,2.018148283480123e-17
20575.0,4.846197976367382e-15,8766.971581903734,0.010000000000000002,0.0005000000000000001,3.2738510370420183e-10,0.01462901243484937,0.9853709069116047,8.032616088876666e-08,2.368150582744157e-14,2.1718946943145006e-05,0.9999782810530332,1.907290461323291e-17
20825.0,4.336617838372491e-15,8746.4356735168,0.010000000000000002,0.0005000000000000001,3.069565735963379e-10,0.014515682691123483,0.9854842402733808,7.672853910074567e-08,2.170247202099073e-14,2.1120954416143757e-05,0.9999788790455622,1.7248401721248407e-17
21075.0,3.880620306433966e-15,8745.122904932467,0.010000000000000002,0.0005000000000000001,2.7307227288980794e-10,0.013916124073553342,0.986083795874731,7.977864327208488e-08,1.9254464348151436e-14,2.0074490617179046e-05,0.9999799255093635,1.78538103402479e-17
21325.0,3.472571142759336e-15,8722.673428021933,0.010000000000000002,0.0005000000000000001,2.6273391350406955e-10,0.014042776807915651,0.9859571484409929,7.448835760254116e-08,1.8065648472723866e-14,1.980001227048698e-05,0.9999801999877115,1.5700114930777297e-17
21575.0,3.1074285524743983e-15,8681.493794394573,0.010000000000000002,0.0005000000000000001,2.6399358703606453e-10,0.014579790829482435,0.985420144602101,6.430442300037225e-08,1.7352230072767842e-14,1.9875135679394506e-05,0.9999801248643032,1.2142048171512773e-17
21825.0,2.78068088795448e-15,8658.397664736829,0.010000000000000002,0.0005000000000000001,2.480971596341147e-10,0.01448993622439758,0.9855100026779401,6.084956508929582e-08,1.5886116443485577e-14,1.9326554360481396e-05,0.9999806734456236,1.0791760058906052e-17
22075.0,2.4882909035763055e-15,8653.285264131106,0.010000000000000002,0.0005000000000000001,2.2210744264917469e-10,0.013949883059717167,0.9860500543549678,6.236320759260235e-08,1.4118547104987351e-14,1.840107599097155e-05,0.999981598923995,1.0898142185243316e-17
22325.0,2.226645872110562e-15,8649.63374452317,0.010000000000000002,0.0005000000000000001,1.9637626492046282e-10,0.013321241904357236,0.9866786931996393,6.469962723931988e-08,1.2409738041008899e-14,1.7401680801779946e-05,0.9999825983191859,1.1183999231503547e-17
22575.0,1.9925129464007527e-15,8660.281379655436,0.010000000000000002,0.0005000000000000001,1.6869353706202405e-10,0.012482193677680706,0.9875177351060004,7.104762540175825e-08,1.0754786917698796e-14,1.6273065466165486e-05,0.999983726934523,1.2623255485475044e-17
22825.0,1.782999214783745e-15,8666.496468275278,0.010000000000000002,0.0005000000000000001,1.4465012749511313e-10,0.011682697934692076,0.9883172247175892,7.720306864614126e-08,9.25929199991407e-15,1.5172966909640136e-05,0.999984827033081,1.3931795278784044e-17
23075.0,1.5955159567028701e-15,8653.900199891026,0.010000000000000002,0.0005000000000000001,1.2994174522818254e-10,0.011273377819616447,0.9887265446575924,7.739284947720468e-08,8.189369221497798e-15,1.4427412581297405e-05,0.9999855725874105,1.3488972531564631e-17
23325.0,1.4277466568611126e-15,8639.04411671297,0.010000000000000002,0.0005000000000000001,1.184105457774216e-10,0.010980500907586663,0.9890194226026812,7.63713215815319e-08,7.32850961504135e-15,1.3819259803582803e-05,0.9999861807401891,1.2777499467490414e-17
23575.0,1.2776183827020777e-15,8611.838892220505,0.010000000000000002,0.0005000000000000001,1.1068678088977004e-10,0.010875945835920876,0.9891239823568395,7.169655268555296e-08,6.641923055961072e-15,1.3369533885651376e-05,0.9999866304661077,1.1135054343929662e-17
23825.0,1.1432761715631618e-15,8585.147885453927,0.010000000000000002,0.0005000000000000001,1.0412942167335843e-10,0.010817254734186219,0.9891826780842362,6.707744807507671e-08,6.0597021967645215e-15,1.2983526673671468e-05,0.9999870164733202,9.67973189892736e-18
24075.0,1.0230601110323173e-15,8545.87994487731,0.010000000000000002,0.0005000000000000001,1.0191056583959423e-10,0.011041358952880184,0.9889585818917898,5.905341938190758e-08,5.674663137647777e-15,1.2836601478293394e-05,0.999987163398516,7.646181000659624e-18
24325.0,9.15484829316793e-16,8533.923443608019,0.010000000000000002,0.0005000000000000001,9.180549812128508e-11,0.010674145781914982,0.989325794999807,5.9126472503768505e-08,5.033584531528267e-15,1.2225127566437146e-05,0.9999877748724286,7.4003064127336e-18
24575.0,8.19221142209819e-16,8536.282812169511,0.010000000000000002,0.0005000000000000001,7.91161515529953e-11,0.01002348874374105,0.9899764477936225,6.338352020779707e-08,4.335840781656113e-15,1.1410228474624347e-05,0.999988589771521,7.9768479703e-18
24825.0,7.330796298879187e-16,8502.721450116525,0.010000000000000002,0.0005000000000000001,7.554749790657947e-11,0.010067909900558782,0.989932032471619,5.755227465309384e-08,3.984809904936709e-15,1.1145085274072936e-05,0.9999888549147219,6.594317237701912e-18
25075.0,6.559959406162014e-16,8490.76075403393,0.010000000000000002,0.0005000000000000001,6.70073319475765e-11,0.009635042576150554,0.9903648991485017,5.820834054439965e-08,3.4804668619493507e-15,1.0518900955555283e-05,0.999989481099041,6.444844542224022e-18
25325.0,5.870176397763603e-16,8485.60204935347,0.010000000000000002,0.0005000000000000001,5.851493798426721e-11,0.009126885894274635,0.9908730534539907,6.05932197986757e-08,3.0140249657798256e-15,9.863939101649167e-06,0.9999901360608954,6.6067304001794595e-18
25575.0,5.252924417259698e-16,8461.05264958007,0.010000000000000002,0.0005000000000000001,5.4736264256566525e-11,0.009044161039306746,0.990955781790616,5.7115340866934755e-08,2.73815290538347e-15,9.551785621145418e-06,0.9999904482143761,5.8087018526151714e-18
25825.0,4.700576790836399e-16,8433.582989417202,0.010000000000000002,0.0005000000000000001,5.1418415160079486e-11,0.008987314642016662,0.9910126320716743,5.3234890605875426e-08,2.490328278475693e-15,9.261653012467452e-06,0.999990738346985,5.006469037106647e-18
26075.0,4.2063087932409863e-16,8448.917028195263,0.010000000000000002,0.0005000000000000001,4.164154072055283e-11,0.00810274430720344,0.9918971939924016,6.165875336048064e-08,2.044285115806657e-15,8.380657188514211e-06,0.9999916193428094,6.049300204455034e-18
26325.0,3.764013322490205e-16,8428.86473316652,0.010000000000000002,0.0005000000000000001,3.809656148386255e-11,0.00791340412669155,0.992086536140611,5.969460090572396e-08,1.8250481641331447e-15,8.025536619108653e-06,0.9999919744633792,5.529446239497255e-18
26575.0,3.368225441424951e-16,8430.675720918658,0.010000000000000002,0.0005000000000000001,3.239851021381003e-11,0.007366764038637056,0.9926331714735915,6.445537291986135e-08,1.5502103278646383e-15,7.4299791951921715e-06,0.9999925700208033,5.995856536257965e-18
26825.0,3.0140548537582406e-16,8421.245355169547,0.010000000000000002,0.0005000000000000001,2.8552978224407665e-11,0.0070202887447847395,0.9929796453527545,6.58739077484594e-08,1.348285877223151e-15,6.991317783317077e-06,0.9999930086822153,5.9612703613911406e-18
27075.0,2.6971254803004983e-16,8424.324687872435,0.010000000000000002,0.0005000000000000001,2.4256606887536235e-11,0.006530544913840392,0.9934693836452754,7.141662764333017e-08,1.1452166218514811e-15,6.470494314170848e-06,0.9999935295056847,6.51409918660058e-18
27325.0,2.4135213887748537e-16,8425.7806680477,0.010000000000000002,0.0005000000000000001,2.0549507453993623e-11,0.006064007232112235,0.9939359155260069,7.722133130142466e-08,9.685725894572913e-16,5.975611866419317e-06,0.9999940243881326,7.067051153707527e-18
27575.0,2.1597384091394593e-16,8408.247283892078,0.010000000000000002,0.0005000000000000001,1.8464112809982396e-11,0.005852784915828581,0.99414713889464,7.61710671444634e-08,8.516180898245743e-16,5.6685839839785054e-06,0.9999943314160151,6.627253612917575e-18
27825.0,1.9326408365827748e-16,8369.603546472907,0.010000000000000002,0.0005000000000000001,1.7751477663879113e-11,0.005905729371208724,0.9940942029155505,6.769548930707248e-08,7.833997888510654e-16,5.546894270083086e-06,0.9999944531057291,5.269786966408403e-18
28075.0,1.7294226872205312e-16,8352.912141950383,0.010000000000000002,0.0005000000000000001,1.6006691192599468e-11,0.005713203479721473,0.9942867297776358,6.672663607227578e-08,6.915578323778088e-16,5.273357536748196e-06,0.9999947266424626,4.9469430042453174e-18
28325.0,1.5475730277755562e-16,8335.861292664384,0.010000000000000002,0.0005000000000000001,1.4397823034988493e-11,0.00551809507712779,0.9944818391064183,6.58020561215193e-08,6.087980313332644e-16,5.005701328823666e-06,0.9999949942986706,4.640366041268218e-18
28575.0,1.3848449508590245e-16,8310.710010121331,0.010000000000000002,0.0005000000000000001,1.3287741542143925e-11,0.005420455065743853,0.9945794825937742,6.232719428836052e-08,5.451163579134769e-16,4.807715800290913e-06,0.9999951922841991,4.082636996347132e-18
28825.0,1.239227812516432e-16,8298.107278150823,0.010000000000000002,0.0005000000000000001,1.1775689111605917e-11,0.005184432213908609,0.994815504938957,6.283535878511985e-08,4.749958007449429e-16,4.5321147627579574e-06,0.9999954678852367,3.964421301881821e-18
29075.0,1.1089223890094499e-16,8284.564230871347,0.010000000000000002,0.0005000000000000001,1.0462644252448068e-11,0.004967105925100127,0.99503283100309,6.306134729243651e-08,4.1453014045910554e-16,4.277065049787993e-06,0.9999957229349499,3.821291578414398e-18
29325.0,9.923186458745801e-17,8279.267937875766,0.010000000000000002,0.0005000000000000001,9.015929411846505e-12,0.004664183400917787,0.9953357504644046,6.612566173951779e-08,3.540291451604826e-16,3.978391655602046e-06,0.999996021608344,3.9424812771376455e-18
29575.0,8.879758445764147e-17,8276.602687209555,0.010000000000000002,0.0005000000000000001,7.717758631379448e-12,0.004360546801931492,0.9956393830232245,7.016712633244294e-08,3.011565947146885e-16,3.6897501443128794e-06,0.9999963102498554,4.1480226457274926e-18
29825.0,7.946047409562182e-17,8254.25336359195,0.010000000000000002,0.0005000000000000001,7.058287437558888e-12,0.0042579188703695675,0.9957420137886779,6.733389421809153e-08,2.6793769978301207e-16,3.528596042316768e-06,0.9999964714039574,3.724306543549729e-18
30075.0,7.110516555225546e-17,8239.320083082932,0.010000000000000002,0.0005000000000000001,6.28626010549663e-12,0.004085870331141355,0.9959140624959752,6.716659709698265e-08,2.3401354032311657e-16,3.3326698797158445e-06,0.9999966673301202,3.552070112471132e-18
30325.0,6.36284218758801e-17,8228.59011466576,0.010000000000000002,0.0005000000000000001,5.495950277140591e-12,0.0038733794573551873,0.9961265518853448,6.865180407246034e-08,2.0158562521009748e-16,3.119435959906675e-06,0.9999968805640399,3.514550900423982e-18
30575.0,5.693786153186933e-17,8209.752312919336,0.010000000000000002,0.0005000000000000001,4.971410218961923e-12,0.0037549933221446142,0.9962449396814813,6.699140271830871e-08,1.780200538140347e-16,2.968003836489649e-06,0.9999970319961633,3.2401975833999953e-18
30825.0,5.095081695010991e-17,8204.747238338494,0.010000000000000002,0.0005000000000000001,4.276322854545403e-12,0.003521778173431824,0.9964781514627805,7.035951120553027e-08,1.5177772989876522e-16,2.7577852077104056e-06,0.999997242214792,3.350528934479599e-18
31075.0,4.559331309677957e-17,8190.843968051553,0.010000000000000002,0.0005000000000000001,3.7990127067985315e-12,0.0033738648054888873,0.9966260647188899,7.047182217290489e-08,1.3233955512068325e-16,2.601564069550393e-06,0.9999973984359303,3.216959149029364e-18
31325.0,4.0799153449815065e-17,8178.665170258422,0.010000000000000002,0.0005000000000000001,3.3383818316865524e-12,0.0032091335068150663,0.9967907950393684,7.145047811468217e-08,1.143810210319049e-16,2.4407032522672496e-06,0.9999975592967477,3.1425427785719657e-18
31575.0,3.6509102084514544e-17,8154.673751570001,0.010000000000000002,0.0005000000000000001,3.0691057959847825e-12,0.0031444553484867126,0.9968554767586202,6.788982394856853e-08,1.0206875685057554e-16,2.3393283053764327e-06,0.9999976606716946,2.7755676746219535e-18
31825.0,3.267015176324801e-17,8143.266971631984,0.010000000000000002,0.0005000000000000001,2.691922011105479e-12,0.0029872284253616025,0.9970127025202421,6.905170436720175e-08,8.811375376300444e-17,2.1928121152263696e-06,0.9999978071878847,2.725520839881943e-18
32075.0,2.923486898590071e-17,8135.2297715560635,0.010000000000000002,0.0005000000000000001,2.3360695034003354e-12,0.002818009848902672,0.9971819187163286,7.143243280342665e-08,7.553063779580068e-17,2.0453829742036697e-06,0.9999979546170258,2.74989471922207e-18
