velocity,density,temperature,si,ca,si0,si1,si2,si3,ca0,ca1,ca2,ca3
13487.5,1.2152094885707688e-13,13154.644746850001,0.5,0.0,1.0746788562631712e-13,2.564917065565975e-05,0.9240282448761651,0.07594603789943144,,,,
13512.5,1.0874296038243405e-13,12963.73912565523,0.5,0.0,1.6379750767400765e-13,3.5783356783095356e-05,0.9535535406421157,0.046410654947169866,,,,
13762.5,9.730858377877931e-14,11957.580091554411,0.5,0.0,9.455771510556023e-13,0.00012289058472305788,0.9957613115947955,0.004115797754391469,,,,
14012.5,8.707653758671528e-14,11210.875156560833,0.04113110539845759,0.0005141388174807199,3.981031167295575e-12,0.0003318517395280407,0.9991564506542693,0.0005116976017531422,2.750427012053523e-15,2.335855169328155e-06,0.9999976641259557,1.887222216785581e-11
14262.5,7.792039616287332e-14,11106.685229178498,0.04113110539845759,0.0005141388174807199,5.167482926828195e-12,0.0004077970174629466,0.9992398488707899,0.00035235410638194956,3.2662349276674883e-15,2.6972567558865114e-06,0.9999973027322926,1.0948107343796966e-11
14512.5,6.972702758343753e-14,11006.134666215381,0.04113110539845759,0.0005141388174807199,6.240106313205101e-12,0.0004780111585005877,0.9992668178909008,0.0002551709442658511,3.625801120419594e-15,2.985189929409479e-06,0.9999970148033652,6.701779952429183e-12
14762.5,6.239519580289279e-14,10946.567176191093,0.04113110539845759,0.0005141388174807199,6.900417332265153e-12,0.0005285073069489087,0.999262504709063,0.00020898797702955207,3.802769059261584e-15,3.1743000338035834e-06,0.999996825695003,4.95943884497256e-12
15012.5,5.583430979647963e-14,10923.181031186334,0.04113110539845759,0.0005141388174807199,7.27801309311818e-12,0.0005660937816088458,0.9992465750705299,0.00018733114053781993,3.906778784251322e-15,3.317733045570814e-06,0.9999966822626835,4.2670112757928546e-12
15262.5,4.9963304230944105e-14,10808.068887089032,0.04113110539845759,0.0005141388174807199,8.988948759371074e-12,0.0006734736050159792,0.9991968417437234,0.00012968464225282468,4.384606725860671e-15,3.699041897557767e-06,0.9999963009556767,2.4213965694478137e-12
15512.5,4.470963783331785e-14,10721.010565588083,0.04113110539845759,0.0005141388174807199,1.0334536671171982e-11,0.0007641517926878184,0.9991374650716824,9.838312528540543e-05,4.680617597183967e-15,3.985642422737725e-06,0.9999960143559968,1.5758714017936828e-12
15762.5,4.0008397081721133e-14,10603.875023976294,0.04113110539845759,0.0005141388174807199,1.2742364852047577e-11,0.0009079954747999799,0.9990245591950401,6.744531741358973e-05,5.229055907341477e-15,4.430372493964972e-06,0.999995569626625,8.758909828444841e-13
16012.5,3.580149414352543e-14,10546.832459725129,0.04113110539845759,0.0005141388174807199,1.4044059185842375e-11,0.0010015483881317428,0.9989432738716861,5.517772613567484e-05,5.471230240607083e-15,4.695840034911722e-06,0.9999953041593141,6.45507204956437e-13
16262.5,3.203694915071928e-14,10463.398067074842,0.04113110539845759,0.0005141388174807199,1.641928111346801e-11,0.0011486324295843769,0.9988100116760543,4.135587794059635e-05,5.943698878411728e-15,5.107624297020376e-06,0.9999948923752824,4.146682823725018e-13
16512.5,2.866824794437767e-14,10341.439306958144,0.04113110539845759,0.0005141388174807199,1.9784931495499012e-11,0.001344553898560215,0.9986272044753061,2.8241606348390476e-05,6.457288124071791e-15,5.5832965046560935e-06,0.9999944167032636,2.252395834058864e-13
16762.5,2.565376735262142e-14,10240.423150027254,0.04113110539845759,0.0005141388174807199,2.3576966564895687e-11,0.001561779152257308,0.9984181191665128,2.0101657652741116e-05,7.042345213778145e-15,6.0999863379203105e-06,0.9999939000135231,1.3205479204534986e-13
17012.5,2.295626090088608e-14,10173.151755314382,0.04113110539845759,0.0005141388174807199,2.61210624734216e-11,0.001728824212946452,0.99825522157344,1.5954187492408152e-05,7.338819744026707e-15,6.453735254377188e-06,0.9999935462646463,9.188476268696601e-14
17262.5,2.0542398600013058e-14,10105.088044905522,0.04113110539845759,0.0005141388174807199,2.907916791983097e-11,0.0019197633307324884,0.9980676558154749,1.2580824713442281e-05,7.676108354607849e-15,6.8429399737090684e-06,0.9999931570599553,6.33139870214473e-14
17512.5,1.8382355125852838e-14,9961.35172545847,0.04113110539845759,0.0005141388174807199,3.709173488314723e-11,0.0023326193643085033,0.9976595833094482,7.797289151643022e-06,8.62860115630661e-15,7.658094424754586e-06,0.9999923419055372,2.9381240343246425e-14
17762.5,1.6449441301988613e-14,9842.661705732186,0.04113110539845759,0.0005141388174807199,4.701441589179203e-11,0.0028208238998674324,0.9971741111157315,5.064937386618699e-06,9.818812393603012e-15,8.601177590310858e-06,0.999991398822385,1.4930235108756834e-14
18012.5,1.471977433223567e-14,9702.559811222269,0.04113110539845759,0.0005141388174807199,6.072374895505272e-11,0.003454468123459832,0.9965424427378656,3.089077950807738e-06,1.1158841120965473e-14,9.686601697368245e-06,0.9999903133982847,6.7657292690959225e-15
18262.5,1.317198270835798e-14,9582.994803635542,0.04113110539845759,0.0005141388174807199,7.783900369553038e-11,0.0042079168538354415,0.9957901215011149,1.9615672107151667e-06,1.2784067418730421e-14,1.0928326701124301e-05,0.9999890716732828,3.3111449834424e-15
18512.5,1.1786942146886184e-14,9416.845727086278,0.04113110539845759,0.0005141388174807199,1.1045597471470508e-10,0.0054803772697051105,0.9945185792932971,1.0433265419366707e-06,1.549220941421171e-14,1.2849366356843423e-05,0.9999871506336263,1.2138387023363442e-15
18762.5,1.0547539292310597e-14,9180.804317791104,0.04113110539845759,0.0005141388174807199,1.9598593631798208e-10,0.008262627414826269,0.9917369715207187,4.0086846901431615e-07,2.1810031618410106e-14,1.672646727983649e-05,0.999983273532698,2.6885606769566873e-16
19012.5,9.438460267001953e-15,8958.970297278593,0.010000000000000002,0.0005000000000000001,3.4539261442325297e-10,0.01233783387241048,0.9876620096700246,1.56112172362352e-07,3.0651210456304907e-14,2.1673737317102955e-05,0.9999783262626523,6.084403822696613e-17
19262.5,8.446001455213301e-15,8914.022108697887,0.010000000000000002,0.0005000000000000001,3.623323087319734e-10,0.013172205984717281,0.9868276632015913,1.3045135907251996e-07,3.068233923458979e-14,2.2305921617150093e-05,0.9999776940783521,4.5378298036167176e-17
19512.5,7.557900183238676e-15,8903.800677304838,0.010000000000000002,0.0005000000000000001,3.392531692255364e-10,0.013055078401357865,0.9869447930615488,1.281978401361327e-07,2.8414036696441216e-14,2.1781528532741966e-05,0.9999782184714388,4.3420416616138435e-17
19762.5,6.76318320363784e-15,8891.507854712328,0.010000000000000002,0.0005000000000000001,3.198029164023991e-10,0.012996772903719662,0.9870031020277074,1.2474876996122457e-07,2.642858580784691e-14,2.133241036293993e-05,0.9999786675896106,4.092156704186372e-17
20012.5,6.052031111420199e-15,8846.782956505756,0.010000000000000002,0.0005000000000000001,3.266579606648962e-10,0.01363825024517626,0.9863616434251193,1.0600304656626186e-07,2.5744272793845743e-14,2.1604441076319425e-05,0.999978395558898,3.099639223558446e-17
20262.5,5.4156570169349715e-15,8825.516302836111,0.010000000000000002,0.0005000000000000001,3.153624374255508e-10,0.013791775216919265,0.9862081252850101,9.918270825811036e-08,2.4285331409301047e-14,2.137189665473753e-05,0.999978628103321,2.7436336556643332e-17
20512.5,4.846197976367382e-15,8804.110974569374,0.010000000000000002,0.0005000000000000001,3.026950150876344e-10,0.013894824154471644,0.9861050824364241,9.310640916293869e-08,2.2767724025559942e-14,2.106562331946543e-05,0.9999789343766577,2.434900795235834e-17
20762.5,4.336617838372491e-15,8792.972373178232,0.010000000000000002,0.0005000000000000001,2.798331662418055e-10,0.013659552408622445,0.9863403553142802,9.199726413708967e-08,2.0775369918697986e-14,2.039505311065795e-05,0.9999796049468685,2.3351969121746008e-17
21012.5,3.880620306433966e-15,8750.51335107292,0.010000000000000002,0.0005000000000000001,2.795244422124975e-10,0.014127761619136103,0.9858721584851067,7.961623271369192e-08,1.982153049350674e-14,2.0396236050859566e-05,0.9999796037639294,1.807434092858834e-17
21262.5,3.472571142759336e-15,8730.195562314058,0.010000000000000002,0.0005000000000000001,2.624036142582744e-10,0.014029785668287924,0.9859701380599512,7.600935729506401e-08,1.8185508921835856e-14,1.9846380700422226e-05,0.9999801536192814,1.634265024677341e-17
21512.5,3.1074285524743983e-15,8712.677847270406,0.010000000000000002,0.0005000000000000001,2.439007564565823e-10,0.013842579008168297,0.9861573471812731,7.35666577315021e-08,1.656600154225341e-14,1.9219907871483324e-05,0.9999807800921119,1.508792041756053e-17
21762.5,2.78068088795448e-15,8688.124149365136,0.010000000000000002,0.0005000000000000001,2.3002245200182473e-10,0.01378903265922199,0.9862108978964425,6.92143129998622e-08,1.519728033020667e-14,1.87168727129154e-05,0.9999812831272719,1.3287352848175677e-17
22012.5,2.4882909035763055e-15,8690.466406054784,0.010000000000000002,0.0005000000000000001,2.0227338148536745e-10,0.013120029762448814,0.9868798968286254,7.320665233739388e-08,1.3368684680278726e-14,1.768715019182303e-05,0.9999823128497949,1.4126552973608236e-17
22262.5,2.226645872110562e-15,8706.725992236925,0.010000000000000002,0.0005000000000000001,1.6984288401690004e-10,0.012111604806562202,0.9878883122134956,8.28100992419327e-08,1.1390411225456178e-14,1.6358125444991788e-05,0.9999836418745437,1.6665675482073085e-17
22512.5,1.9925129464007527e-15,8671.49237863468,0.010000000000000002,0.0005000000000000001,1.6233344324929145e-10,0.012172123926957348,0.9878278008260927,7.508461648705277e-08,1.0471873531809835e-14,1.5984447490686075e-05,0.9999840155524988,1.3745648473959796e-17
22762.5,1.782999214783745e-15,8672.562230847458,0.010000000000000002,0.0005000000000000001,1.4179324480599574e-10,0.011531068018482287,0.9884688523415355,7.949818910118082e-08,9.134124113035905e-15,1.5033957351754354e-05,0.9999849660426391,1.4580010374544298e-17
23012.5,1.5955159567028701e-15,8640.215014055984,0.010000000000000002,0.0005000000000000001,1.3644077405563942e-10,0.011639377913131233,0.9883605497065437,7.224388419846759e-08,8.476071775217011e-15,1.4762224482539181e-05,0.999985237775509,1.2137890464368672e-17
23262.5,1.4277466568611126e-15,8613.567565268351,0.010000000000000002,0.0005000000000000001,1.2813360384013862e-10,0.011563278167106667,0.9884366539941097,6.771064998392714e-08,7.72167819057304e-15,1.4323373007560267e-05,0.9999856766269848,1.0576592765643135e-17
23512.5,1.2776183827020777e-15,8644.31210036582,0.010000000000000002,0.0005000000000000001,1.016453816641767e-10,0.010284412546564424,0.9897155046445664,8.270722380017396e-08,6.307560004782454e-15,1.288494761329301e-05,0.9999871150523804,1.4020639788347768e-17
23762.5,1.1432761715631618e-15,8608.616119814526,0.010000000000000002,0.0005000000000000001,9.831196836622273e-11,0.010416511635906445,0.9895834140657506,7.420003090898061e-08,5.861720281018393e-15,1.2671692379393491e-05,0.9999873283076148,1.1412433044760919e-17
24012.5,1.0230601110323173e-15,8581.457396318316,0.010000000000000002,0.0005000000000000001,9.253809655351192e-11,0.010364091419919447,0.9896358391843378,6.930320462151434e-08,5.347864813604308e-15,1.2306896543160294e-05,0.9999876931034515,9.891072471533235e-18
24262.5,9.15484829316793e-16,8558.597269130612,0.010000000000000002,0.0005000000000000001,8.56660240569007e-11,0.010200266434434415,0.9897996672930668,6.618683275241822e-08,4.819917639824287e-15,1.1857266672453839e-05,0.9999881427333228,8.865228282659466e-18
24512.5,8.19221142209819e-16,8538.553709409,0.010000000000000002,0.0005000000000000001,7.892371415172506e-11,0.01000729722222547,0.9899926388240136,6.387483721382605e-08,4.335162540956922e-15,1.140369165415728e-05,0.9999885963083415,8.089170203931487e-18
24762.5,7.330796298879187e-16,8535.501758577928,0.010000000000000002,0.0005000000000000001,6.850102551190561e-11,0.009441545905648784,0.9905583868670226,6.715882768919288e-08,3.739869065536112e-15,1.0665081485297766e-05,0.9999893349185109,8.425500053588023e-18
25012.5,6.559959406162014e-16,8532.735116336771,0.010000000000000002,0.0005000000000000001,5.969283299714103e-11,0.00893088160421207,0.9910690478672171,7.046887793716506e-08,3.2394433398311666e-15,9.997295132952805e-06,0.9999900027048638,8.76516104270665e-18
25262.5,5.870176397763603e-16,8535.059241715511,0.010000000000000002,0.0005000000000000001,5.0717705666703535e-11,0.008308997214892987,0.9916909264898791,7.624451023050931e-08,2.7509625193496406e-15,9.253531356019446e-06,0.9999907464686412,9.53560525809694e-18
25512.5,5.252924417259698e-16,8513.239712700184,0.010000000000000002,0.0005000000000000001,4.669379293179731e-11,0.008148357499487837,0.9918515692179866,7.323583188876096e-08,2.4676780999400926e-15,8.888926402312047e-06,0.9999911110735952,8.615134800060471e-18
25762.5,4.700576790836399e-16,8506.521068426484,0.010000000000000002,0.0005000000000000001,4.1020762914896407e-11,0.007748729314010495,0.9922511950426646,7.560230412806483e-08,2.1456627617608805e-15,8.35782905600065e-06,0.9999916421709419,8.721380041287124e-18
26012.5,4.2063087932409863e-16,8497.046487549907,0.010000000000000002,0.0005000000000000001,3.621889825241135e-11,0.007393180998795552,0.9926067417658138,7.719917173898376e-08,1.8697645641115807e-15,7.873143198061475e-06,0.9999921268568001,8.666392078039234e-18
26262.5,3.764013322490205e-16,8491.5760350081,0.010000000000000002,0.0005000000000000001,3.1379864875027296e-11,0.006967024534109895,0.9930328947307518,8.070375840877898e-08,1.6057870263193037e-15,7.347466352356225e-06,0.999992652533646,8.915161127203145e-18
26512.5,3.368225441424951e-16,8464.199220942797,0.010000000000000002,0.0005000000000000001,2.929690513329954e-11,0.006895505275138174,0.9931044191048497,7.559071530494253e-08,1.4519681289250235e-15,7.099554727075672e-06,0.9999929004452716,7.728185757658854e-18
26762.5,3.0140548537582406e-16,8452.47458900608,0.010000000000000002,0.0005000000000000001,2.596509474941023e-11,0.006595470497694761,0.9934044529816222,7.649471785144769e-08,1.2669581139844644e-15,6.696319860698266e-06,0.9999933036801381,7.560818913404047e-18
27012.5,2.6971254803004983e-16,8456.09690674774,0.010000000000000002,0.0005000000000000001,2.1906661257380075e-11,0.006107688645339612,0.9938922279024133,8.343034051974487e-08,1.0694503763581556e-15,6.174262751015408e-06,0.9999938257372479,8.324099433328413e-18
27262.5,2.4135213887748537e-16,8451.224889539079,0.010000000000000002,0.0005000000000000001,1.9070111638787987e-11,0.005773297011651913,0.9942266159166742,8.70526037713412e-08,9.229128717888396e-16,5.7774001917189475e-06,0.9999942225998073,8.560392926898825e-18
27512.5,2.1597384091394593e-16,8445.282989559419,0.010000000000000002,0.0005000000000000001,1.6585424039750296e-11,0.005453954175518814,0.9945459551881495,9.061974634207482e-08,7.949129859177859e-16,5.40117909914319e-06,0.9999945988209001,8.756414183431794e-18
27762.5,1.9326408365827748e-16,8424.893495568429,0.010000000000000002,0.0005000000000000001,1.5032360390301622e-11,0.005294100898235876,0.9947058108977113,8.818902048914577e-08,7.0293212382148675e-16,5.1438635772567114e-06,0.999994856136422,8.038107475118907e-18
28012.5,1.7294226872205312e-16,8393.449069551625,0.010000000000000002,0.0005000000000000001,1.4097555191849403e-11,0.005255539482153965,0.9947443791686829,8.133506558222577e-08,6.357157056184032e-16,4.9756418501798304e-06,0.9999950243581491,6.7739171367398936e-18
28262.5,1.5475730277755562e-16,8384.586660536932,0.010000000000000002,0.0005000000000000001,1.237728919860309e-11,0.004995797413658423,0.9950041191442566,8.342970769710137e-08,5.509720257729567e-16,4.671602744756295e-06,0.9999953283972547,6.769503292880435e-18
28512.5,1.3848449508590245e-16,8366.608340302673,0.010000000000000002,0.0005000000000000001,1.1171383770377671e-11,0.004835989789146861,0.9951639283016033,8.189807850218195e-08,4.862151771892407e-16,4.441521563003911e-06,0.9999955584784364,6.3066168169593656e-18
28762.5,1.239227812516432e-16,8345.533104753422,0.010000000000000002,0.0005000000000000001,1.0155295471705297e-11,0.004703426037111541,0.9952964946495313,7.930320197226127e-08,4.307624822482697e-16,4.2354875232135845e-06,0.9999957645124764,5.742810385919282e-18
29012.5,1.1089223890094499e-16,8336.20085460218,0.010000000000000002,0.0005000000000000001,8.874395424139906e-12,0.004457330365623013,0.9955425881572744,8.146822813868163e-08,3.714614086833574e-16,3.965466061426976e-06,0.9999960345339381,5.738497660625348e-18
29262.5,9.923186458745801e-17,8340.759841612902,0.010000000000000002,0.0005000000000000001,7.392676455402535e-12,0.004093239513343272,0.9959066706325004,8.984676361659145e-08,3.0990620306891054e-16,3.630399831628119e-06,0.999996369600168,6.408555326041934e-18
29512.5,8.879758445764147e-17,8308.041368005997,0.010000000000000002,0.0005000000000000001,7.020300463307741e-12,0.004096980986754358,0.9959029372788317,8.172739368415793e-08,2.8316872526389967e-16,3.5342030283140937e-06,0.9999964657969713,5.297169043953841e-18
29762.5,7.946047409562182e-17,8290.181573377595,0.010000000000000002,0.0005000000000000001,6.314062850811058e-12,0.0039568426360016415,0.9960430769930345,8.036464996893468e-08,2.489993321068242e-16,3.353272380856403e-06,0.9999966467276189,4.940638894393846e-18
30012.5,7.110516555225546e-17,8284.608521569573,0.010000000000000002,0.0005000000000000001,5.433507845760175e-12,0.003712107431398298,0.9962878082910822,8.427208603332709e-08,2.1228599832930186e-16,3.1160538607125585e-06,0.9999968839461392,5.093714722606676e-18
30262.5,6.36284218758801e-17,8276.003131155489,0.010000000000000002,0.0005000000000000001,4.742286367219035e-12,0.0035149480995316238,0.9964849651162637,8.677946233309427e-08,1.8291689799301971e-16,2.915578708320159e-06,0.9999970844212915,5.111145522742272e-18
30512.5,5.693786153186933e-17,8251.820158498544,0.010000000000000002,0.0005000000000000001,4.3439934882851155e-12,0.0034359070590507758,0.9965640101875803,8.274902477922342e-08,1.6271129914456594e-16,2.7891182299273262e-06,0.99999721088177,4.535524709562098e-18
30762.5,5.095081695010991e-17,8231.387797417092,0.010000000000000002,0.0005000000000000001,3.930037357691714e-12,0.003331313288084787,0.9966686063138068,8.03941784067919e-08,1.4351284113448278e-16,2.652731577211108e-06,0.9999973472684226,4.144926136580651e-18
31012.5,4.559331309677957e-17,8214.399251725923,0.010000000000000002,0.0005000000000000001,3.5240560017426966e-12,0.0032110225040566254,0.9967888981598348,7.933258445220908e-08,1.2589585200168206e-16,2.513085888970861e-06,0.999997486914111,3.886019264387436e-18
31262.5,4.0799153449815065e-17,8202.622336834747,0.010000000000000002,0.0005000000000000001,3.0968599305729777e-12,0.0030542622012460175,0.9969456572553429,8.054031420131123e-08,1.0885470119703122e-16,2.357962295294099e-06,0.9999976420377046,3.806499550888042e-18
31512.5,3.6509102084514544e-17,8200.253859406206,0.010000000000000002,0.0005000000000000001,2.6332315954580104e-12,0.002842817070225452,0.9971570970368387,8.589030266078334e-08,9.199987205253771e-17,2.1784299265551654e-06,0.9999978215700733,4.028417144893524e-18
31762.5,3.267015176324801e-17,8183.021017467554,0.010000000000000002,0.0005000000000000001,2.3616625320302453e-12,0.0027405207786720303,0.9972593945685123,8.465045400747397e-08,8.069133908472016e-17,2.063692366238231e-06,0.9999979363076337,3.76794089785222e-18
32012.5,2.923486898590071e-17,8173.543059239486,0.010000000000000002,0.0005000000000000001,2.058853615254267e-12,0.0025930383754741645,0.9974068746693019,8.695316520544099e-08,6.937668305939248e-17,1.9289264349069544e-06,0.9999980710735651,3.759450257303469e-18
32262.5,2.6160807908588976e-17,8156.059873843286,0.010000000000000002,0.0005000000000000001,1.8422156588987877e-12,0.002495939418339859,0.9975039748389439,8.574087401934518e-08,6.069636708978866e-17,1.8248195695452019e-06,0.9999981751804304,3.5143608597369605e-18
