velocity,density,temperature,si,ca,si0,si1,si2,si3,ca0,ca1,ca2,ca3
13375.0,1.2152094885707688e-13,13010.557170528831,0.5,0.0,1.6645058951983826e-13,3.480276581501751e-05,0.949899469981152,0.050065701671487786,,,,
13625.0,1.0874296038243405e-13,12502.136394532125,0.5,0.0,4.4676124824428307e-13,7.119528609838324e-05,0.985694583598744,0.014234219820033818,,,,
13875.0,9.730858377877931e-14,11496.392404877646,0.5,0.0,2.715221859943171e-12,0.00024831308904432774,0.9986943790887812,0.0010573078167521346,,,,
14125.0,8.707653758671528e-14,10761.14620113178,0.04113110539845759,0.0005141388174807199,1.2501287079355317e-11,0.0007074340550551284,0.9991776930297797,0.00011487290264987141,6.036350041813541e-15,3.999350523882953e-06,0.9999960006474848,1.9853157453754354e-12
14375.0,7.792039616287332e-14,10723.210219122864,0.04113110539845759,0.0005141388174807199,1.3990746820593832e-11,0.0007875571371235504,0.999115938249455,9.650459942119882e-05,6.506632585405519e-15,4.31278876303225e-06,0.9999956872096719,1.5585030271848031e-12
14625.0,6.972702758343753e-14,10589.512979132907,0.04113110539845759,0.0005141388174807199,1.874696009454237e-11,0.0009882017029494458,0.9989509647115715,6.0833566728822364e-05,7.770348222794347e-15,5.010859380091202e-06,0.9999949891398392,7.729574502422027e-13
14875.0,6.239519580289279e-14,10518.958579841568,0.04113110539845759,0.0005141388174807199,2.1602738866576943e-11,0.0011222281640251557,0.9988305906892285,4.7181125141817306e-05,8.4036782721675e-15,5.433538722011184e-06,0.9999945664607429,5.26743882453329e-13
15125.0,5.583430979647963e-14,10449.667296820448,0.04113110539845759,0.0005141388174807199,2.496400603867715e-11,0.001276725662276011,0.9986867306708178,3.65436419412348e-05,9.12096115201586e-15,5.901732020897641e-06,0.9999940982676113,3.587006918495303e-13
15375.0,4.9963304230944105e-14,10405.645721549787,0.04113110539845759,0.0005141388174807199,2.7314099800665882e-11,0.0014009510790308748,0.9985683680789019,3.0680814752376213e-05,9.57072210363426e-15,6.257119821171638e-06,0.9999937428798921,2.7715492645401277e-13
15625.0,4.470963783331785e-14,10320.800192021503,0.04113110539845759,0.0005141388174807199,3.239611665627204e-11,0.0016216357786964296,0.9983557358215281,2.2628367378909836e-05,1.0521418351029551e-14,6.8595937475729846e-06,0.9999931404060678,1.7402077454683161e-13
15875.0,4.0008397081721133e-14,10237.018506580613,0.04113110539845759,0.0005141388174807199,3.85226761420736e-11,0.001880149968043566,0.9981032000374408,1.6649955992795776e-05,1.1600255559215005e-14,7.530259891587384e-06,0.9999924697399877,1.0894700737834951e-13
16125.0,3.580149414352543e-14,10099.71437997498,0.04113110539845759,0.0005141388174807199,5.1107366284999765e-11,0.002343437602995049,0.9976463107959976,1.0251549899958907e-05,1.3624009062037502e-14,8.650930137526494e-06,0.9999913490697978,5.12285016571301e-14
16375.0,3.203694915071928e-14,10056.010984399769,0.04113110539845759,0.0005141388174807199,5.488205218396274e-11,0.002540439132451338,0.9974508935726624,8.667240004176828e-06,1.4029851920669179e-14,9.058937738807853e-06,0.9999909410622075,3.966398122562948e-14
16625.0,2.866824794437767e-14,9949.244433208492,0.04113110539845759,0.0005141388174807199,6.6475258538183e-11,0.0029821063708294453,0.9970119261445293,5.967418166019637e-06,1.542841590956159e-14,9.956993489005001e-06,0.9999900430064737,2.199161365720435e-14
16875.0,2.565376735262142e-14,9915.281179200498,0.04113110539845759,0.0005141388174807199,6.821783082633771e-11,0.003138089770874738,0.9968566221597417,5.288001165670082e-06,1.5314456091052392e-14,1.0180955448821332e-05,0.9999898190445176,1.8162085175584397e-14
17125.0,2.295626090088608e-14,9827.386627401558,0.04113110539845759,0.0005141388174807199,7.999455964830338e-11,0.0036052315369987215,0.9963909257391521,3.842643854507741e-06,1.6557158762061213e-14,1.104267469895541e-05,0.9999889573252734,1.0989880466484427e-14
17375.0,2.0542398600013058e-14,9718.209816681967,0.04113110539845759,0.0005141388174807199,9.797070275627219e-11,0.004262265498213124,0.995735147588573,2.5868152432243713e-06,1.8329525679555628e-14,1.2187391244900546e-05,0.9999878126087309,5.86863119660746e-15
17625.0,1.8382355125852838e-14,9593.06001210754,0.04113110539845759,0.0005141388174807199,1.2421818280393302e-10,0.005155235560376674,0.9948431283851656,1.6359302394652049e-06,2.06734736772474e-14,1.3637301952950531e-05,0.9999863626980235,2.8285307631685865e-15
17875.0,1.6449441301988613e-14,9471.01030633004,0.04113110539845759,0.0005141388174807199,1.5969026663633208e-10,0.0062908962425165076,0.9937080790566997,1.024541093535411e-06,2.3657943710752336e-14,1.538724021560737e-05,0.9999846127597594,1.3500539365380242e-15
18125.0,1.471977433223567e-14,9345.109581819552,0.04113110539845759,0.0005141388174807199,2.0759251178401482e-10,0.007732574979115744,0.9922667980505632,6.267627285492481e-07,2.722329397607943e-14,1.743448821052664e-05,0.9999825655117616,6.196452097992975e-16
18375.0,1.317198270835798e-14,9207.116709774013,0.04113110539845759,0.0005141388174807199,2.840784976155714e-10,0.009828144033664193,0.9901714984443079,3.572379495961091e-07,3.251403402863295e-14,2.0243289733196235e-05,0.999979756710234,2.55587379157703e-16
18625.0,1.1786942146886184e-14,9033.409965883064,0.04113110539845759,0.0005141388174807199,4.2910210100886897e-10,0.013324783521088379,0.9866750430746518,1.7297515784814363e-07,4.122900335341101e-14,2.4523961958351126e-05,0.9999754760380002,8.130208551238488e-17
18875.0,1.0547539292310597e-14,8758.171360262659,0.04113110539845759,0.0005141388174807199,9.218260597934937e-10,0.022724933086693332,0.977275016037371,4.995410955594338e-08,6.651746699408329e-14,3.4965095168795934e-05,0.9999650349047646,1.170592011333022e-17
19125.0,9.438460267001953e-15,8477.985465041515,0.010000000000000002,0.0005000000000000001,2.098384668911867e-09,0.03996086787891666,0.9600391170414508,1.2981247819938681e-08,1.1186878397683148e-13,5.116232899557248e-05,0.9999488376708926,1.4403327001907933e-18
19375.0,8.446001455213301e-15,8450.821454765983,0.010000000000000002,0.0005000000000000001,2.0800557844860178e-09,0.041100807685562075,0.9588991785641168,1.1670265334422262e-08,1.0773791623718991e-13,5.129882950243487e-05,0.9999487011703898,1.2000875585310891e-18
19625.0,7.557900183238676e-15,8405.41501797203,0.010000000000000002,0.0005000000000000001,2.181640042382228e-09,0.04384956247583433,0.9561504257675757,9.574949966621509e-09,1.0756094971461666e-13,5.2745653744218404e-05,0.9999472543461482,8.67134684926489e-19
19875.0,6.76318320363784e-15,8397.849687468475,0.010000000000000002,0.0005000000000000001,2.0327124938221256e-09,0.043327498098980066,0.956672490380111,9.488196384960846e-09,9.946281028285566e-14,5.141794873806158e-05,0.9999485820511625,8.400658250116769e-19
20125.0,6.052031111420199e-15,8362.867247221599,0.010000000000000002,0.0005000000000000001,2.036292899314465e-09,0.04487404810478091,0.9551259415913563,8.26756988147652e-09,9.584757209478354e-14,5.166708015621229e-05,0.9999483329197479,6.625604484299543e-19
20375.0,5.4156570169349715e-15,8360.82332062531,0.010000000000000002,0.0005000000000000001,1.8690785891674225e-09,0.043913567871425085,0.9560864218516242,8.407872126604445e-09,8.781735140881944e-14,5.00335171045304e-05,0.9999499664828077,6.68910156414291e-19
20625.0,4.846197976367382e-15,8323.673250259055,0.010000000000000002,0.0005000000000000001,1.8763674910055054e-09,0.045546465228806815,0.954453525631694,7.263131575007893e-09,8.455349599031703e-14,5.0277060447255836e-05,0.9999497229394682,5.193119449000639e-19
20875.0,4.336617838372491e-15,8314.917929184401,0.010000000000000002,0.0005000000000000001,1.7405489819641606e-09,0.04488180554270557,0.9551181855252145,7.191530909933954e-09,7.76432388029876e-14,4.882658470448373e-05,0.9999511734152179,5.006587224410585e-19
21125.0,3.880620306433966e-15,8274.076853618197,0.010000000000000002,0.0005000000000000001,1.755828855103832e-09,0.046699491589224276,0.9533005005371482,6.117798516817547e-09,7.47625688593297e-14,4.911014441844936e-05,0.9999508898555068,3.782434916819257e-19
21375.0,3.472571142759336e-15,8241.30334262042,0.010000000000000002,0.0005000000000000001,1.7258488875831338e-09,0.04778121469770158,0.952218778155955,5.420494547349935e-09,7.075444454444206e-14,4.881093540306293e-05,0.9999511890645262,3.042884677684528e-19
21625.0,3.1074285524743983e-15,8258.982084216806,0.010000000000000002,0.0005000000000000001,1.4603649823607267e-09,0.04436917631044865,0.9556308160462961,6.182890307300028e-09,6.09821034071851e-14,4.540500579372814e-05,0.9999545949941453,3.6441811568832403e-19
21875.0,2.78068088795448e-15,8254.77887117485,0.010000000000000002,0.0005000000000000001,1.3066296686403883e-09,0.04271764153556353,0.9572823507972538,6.360553020685709e-09,5.420492475454307e-14,4.3221902178771276e-05,0.9999567780977671,3.694881278470563e-19
22125.0,2.4882909035763055e-15,8238.216303366611,0.010000000000000002,0.0005000000000000001,1.2221500687867567e-09,0.04232704798687916,0.957672944674021,6.116949797772499e-09,4.968336229514236e-14,4.20068468813135e-05,0.999957993153069,3.379848820395432e-19
22375.0,2.226645872110562e-15,8249.3063108087,0.010000000000000002,0.0005000000000000001,1.0432638677345389e-09,0.03952698456590893,0.9604730075928463,6.797980893374303e-09,4.284043646923867e-14,3.914748818856755e-05,0.9999608525117687,3.869829993681358e-19
22625.0,1.9925129464007527e-15,8221.422519401229,0.010000000000000002,0.0005000000000000001,9.933769433472632e-10,0.039624790113616006,0.9603752026468542,6.246152908595935e-09,3.9448309502190335e-14,3.824915749692764e-05,0.9999617508424636,3.271038254885174e-19
22875.0,1.782999214783745e-15,8209.232973547929,0.010000000000000002,0.0005000000000000001,9.082887804162892e-10,0.03869032539852417,0.961309667513909,6.179278147058777e-09,3.549502419004729e-14,3.673863107128124e-05,0.9999632613688931,3.1157939394138797e-19
23125.0,1.5955159567028701e-15,8164.022742108081,0.010000000000000002,0.0005000000000000001,9.206304392342965e-10,0.040390645866529164,0.9596093480545781,5.1582624241147375e-09,3.4120786977443224e-14,3.6957461525667956e-05,0.9999630425384401,2.27217368108257e-19
23375.0,1.4277466568611126e-15,8184.852731913744,0.010000000000000002,0.0005000000000000001,7.534451133723139e-10,0.03670149799831672,0.9632984951701925,6.078045701539471e-09,2.8499178001257275e-14,3.373068077185985e-05,0.9999662693191996,2.8400343950731714e-19
23625.0,1.2776183827020777e-15,8154.014691754883,0.010000000000000002,0.0005000000000000001,7.241443504234818e-10,0.03701738406811579,0.962982609715004,5.492735814628863e-09,2.6387194963016495e-14,3.30873265486442e-05,0.999966912673425,2.3374018370818125e-19
23875.0,1.1432761715631618e-15,8149.094709845384,0.010000000000000002,0.0005000000000000001,6.39635586547696e-10,0.035344024536555885,0.9646559691395928,5.684215569259245e-09,2.310915917234886e-14,3.123110176603301e-05,0.999968768898211,2.378088460701278e-19
24125.0,1.0230601110323173e-15,8120.2516931124665,0.010000000000000002,0.0005000000000000001,6.130009205193046e-10,0.03558216862812225,0.9644178255851882,5.173688619824111e-09,2.1377571624280342e-14,3.060657952641558e-05,0.9999693934204522,1.9815618668298344e-19
24375.0,9.15484829316793e-16,8108.421624735043,0.010000000000000002,0.0005000000000000001,5.554287748838587e-10,0.03454003568846224,0.9654599586054692,5.15063983840247e-09,1.9053904747206e-14,2.9234810807071167e-05,0.9999707651891738,1.899644792150752e-19
24625.0,8.19221142209819e-16,8092.636816726694,0.010000000000000002,0.0005000000000000001,5.059335756837744e-10,0.033644662735495635,0.9663553317107312,5.047839512987053e-09,1.699479535685947e-14,2.7962233832324215e-05,0.9999720377661507,1.7711116224513733e-19
24875.0,7.330796298879187e-16,8058.599216506313,0.010000000000000002,0.0005000000000000001,4.947374998151181e-10,0.03431868786263986,0.9656813071884899,4.454132734041312e-09,1.5940467467954804e-14,2.7661254316223637e-05,0.9999723387456678,1.4066370684331983e-19
25125.0,6.559959406162014e-16,8067.560857148028,0.010000000000000002,0.0005000000000000001,4.148968558957737e-10,0.03167949348127352,0.9683205011226999,4.981129683877474e-09,1.3457905239084879e-14,2.547371939149739e-05,0.9999745262805951,1.6127382954882776e-19
25375.0,5.870176397763603e-16,8057.47852734142,0.010000000000000002,0.0005000000000000001,3.6652860875030115e-10,0.030250149932899692,0.9697498446299254,5.070646316075825e-09,1.1714045532811815e-14,2.398858914153357e-05,0.9999760114108468,1.5882621114379013e-19
25625.0,5.252924417259698e-16,8042.06485958369,0.010000000000000002,0.0005000000000000001,3.3003595952713287e-10,0.029245763649686944,0.9707542310091495,5.0111275836456304e-09,1.0329786351989123e-14,2.279125147125235e-05,0.9999772087485185,1.4939283764835337e-19
25875.0,4.700576790836399e-16,8039.993196643497,0.010000000000000002,0.0005000000000000001,2.8841402564057433e-10,0.027727170287387623,0.9722728241603877,5.263810697042941e-09,8.974328484885326e-15,2.139819951032976e-05,0.9999786018004807,1.556212349980767e-19
26125.0,4.2063087932409863e-16,8007.467976072751,0.010000000000000002,0.0005000000000000001,2.7897787977568167e-10,0.02808542444106885,0.9719145705837011,4.696252169122782e-09,8.335892818433292e-15,2.1041944217124814e-05,0.9999789580557745,1.253551431800633e-19
26375.0,3.764013322490205e-16,8000.452618808333,0.010000000000000002,0.0005000000000000001,2.4457371575392464e-10,0.02668326219760074,0.9733167327101889,4.8476366767248744e-09,7.224215229406518e-15,1.975089701842216e-05,0.9999802491029743,1.2634581822012355e-19
26625.0,3.368225441424951e-16,7973.713498659803,0.010000000000000002,0.0005000000000000001,2.3076772856741798e-10,0.02659321390339723,0.9734067813902821,4.475552993654214e-09,6.588268016637563e-15,1.9187616522814674e-05,0.9999808123834706,1.0712076443378125e-19
26875.0,3.0140548537582406e-16,7979.783331726527,0.010000000000000002,0.0005000000000000001,1.93316271584131e-10,0.02452705679065052,0.9754729380543674,4.961665877724237e-09,5.537758213739231e-15,1.7636800904341326e-05,0.9999823631990902,1.207842168460943e-19
27125.0,2.6971254803004983e-16,7964.192515465058,0.010000000000000002,0.0005000000000000001,1.7418921528621092e-10,0.02372149779001958,0.9762784971433476,4.892443581085222e-09,4.884529147019038e-15,1.6759414124925175e-05,0.9999832405858702,1.1320881260093075e-19
27375.0,2.4135213887748537e-16,7953.599592873705,0.010000000000000002,0.0005000000000000001,1.5502881583874364e-10,0.022758017946215653,0.9772419769588624,4.939893220096879e-09,4.2793509493641555e-15,1.5844287893685538e-05,0.9999841557121021,1.1036439241355657e-19
27625.0,2.1597384091394593e-16,7949.500622146688,0.010000000000000002,0.0005000000000000001,1.3394103939249856e-10,0.02141502510204467,0.9785849695706841,5.193330233408607e-09,3.66701825378041e-15,1.47639988610317e-05,0.9999852360011353,1.143293833007836e-19
27875.0,1.9326408365827748e-16,7927.297176386713,0.010000000000000002,0.0005000000000000001,1.2392101219007242e-10,0.02107135038337613,0.9789286445690858,4.923616904299053e-09,3.295299990109455e-15,1.4205676522650524e-05,0.999985794323474,1.0087042901051317e-19
28125.0,1.7294226872205312e-16,7934.679289139828,0.010000000000000002,0.0005000000000000001,1.0221902440720446e-10,0.019236848234029397,0.9807631461278108,5.535940697665534e-09,2.7320794452993235e-15,1.2948965208334306e-05,0.999987051034789,1.158977783754164e-19
28375.0,1.5475730277755562e-16,7914.946390707722,0.010000000000000002,0.0005000000000000001,9.37266338225626e-11,0.01881734250700124,0.9811826520793409,5.319931252034028e-09,2.4399216207280217e-15,1.2407001344038892e-05,0.9999875929986535,1.0444229310532468e-19
28625.0,1.3848449508590245e-16,7894.633722029609,0.010000000000000002,0.0005000000000000001,8.62489960239837e-11,0.018450188226565464,0.9815498065983446,5.088841019412716e-09,2.185084589983884e-15,1.1908970930950677e-05,0.9999880910290668,9.348499212070837e-20
28875.0,1.239227812516432e-16,7887.883560525454,0.010000000000000002,0.0005000000000000001,7.489088848574443e-11,0.017417085490227475,0.9825829091508453,5.284036404980512e-09,1.8760697590469004e-15,1.1116830729860258e-05,0.9999888831692683,9.484312130329573e-20
29125.0,1.1089223890094499e-16,7885.383998177921,0.010000000000000002,0.0005000000000000001,6.457187423918244e-11,0.01636560959549408,0.9836343847536654,5.586268746347927e-09,1.6069395974846e-15,1.0352269508666993e-05,0.9999896477304897,9.932270962979631e-20
29375.0,9.923186458745801e-17,7857.608487402018,0.010000000000000002,0.0005000000000000001,6.08312821607661e-11,0.016294494864216875,0.9837054999416184,5.133333524908144e-09,1.4604254032383243e-15,1.0040982185348198e-05,0.9999899590178132,8.332836326949964e-20
29625.0,8.879758445764147e-17,7845.44877046815,0.010000000000000002,0.0005000000000000001,5.4009186486650295e-11,0.015606996711539402,0.9843929980759728,5.158478676151873e-09,1.2738337466525391e-15,9.47239607006746e-06,0.9999905276039287,8.038462308890144e-20
29875.0,7.946047409562182e-17,7836.926524729979,0.010000000000000002,0.0005000000000000001,4.726638853187216e-11,0.014808216071296725,0.9851917785865946,5.294842254686217e-09,1.0998624268579219e-15,8.875384207583729e-06,0.9999911246157913,8.014346100030877e-20
30125.0,7.110516555225546e-17,7816.047305064871,0.010000000000000002,0.0005000000000000001,4.3407403101733356e-11,0.01450014459547685,0.985499850305606,5.055509604017621e-09,9.8206294986518e-16,8.506335248534816e-06,0.9999914936647506,7.138123152391352e-20
30375.0,6.36284218758801e-17,7818.708856743071,0.010000000000000002,0.0005000000000000001,3.6284921385212506e-11,0.013350969541588336,0.9866490248754028,5.546723918885796e-09,8.207166594050182e-16,7.798431239609406e-06,0.9999922015687597,7.890036837338362e-20
30625.0,5.693786153186933e-17,7796.039521515541,0.010000000000000002,0.0005000000000000001,3.344344217031814e-11,0.01310430543804742,0.9868956892776444,5.25086473954631e-09,7.339371744833782e-16,7.484362907362749e-06,0.9999925156370919,6.924439115118695e-20
30875.0,5.095081695010991e-17,7779.122989019676,0.010000000000000002,0.0005000000000000001,3.0247133913897024e-11,0.012703897549345887,0.9872960972933627,5.127044405996817e-09,6.483072665955316e-16,7.121531578376771e-06,0.999992878468421,6.385995260817308e-20
31125.0,4.559331309677957e-17,7763.192061217169,0.010000000000000002,0.0005000000000000001,2.7241784275012855e-11,0.012281940604074936,0.9877180543335305,5.035152683752717e-09,5.70909732362883e-16,6.762596364304933e-06,0.9999932374036352,5.941612803294838e-20
31375.0,4.0799153449815065e-17,7748.748027544801,0.010000000000000002,0.0005000000000000001,2.435701636144876e-11,0.011817518536414297,0.9881824764469282,4.992300420776449e-09,4.999914309371584e-16,6.398872150413942e-06,0.9999936011278491,5.607749825141555e-20
31625.0,3.6509102084514544e-17,7740.243543170167,0.010000000000000002,0.0005000000000000001,2.125937411701984e-11,0.011192597270718384,0.9888073975794894,5.128532681669251e-09,4.3050725471315683e-16,5.986102557677738e-06,0.9999940138974418,5.593044189838024e-20
31875.0,3.267015176324801e-17,7734.329492494732,0.010000000000000002,0.0005000000000000001,1.8359993182829745e-11,0.01052722896614121,0.9894727656647037,5.3507951181509005e-09,3.679084461334101e-16,5.571865386366958e-06,0.9999944281346133,5.714819161304068e-20
32125.0,2.923486898590071e-17,7725.298441006433,0.010000000000000002,0.0005000000000000001,1.6042592612068337e-11,0.009977509343133597,0.9900224851587641,5.482059666742753e-09,3.1692444950397025e-16,5.214553650294242e-06,0.9999947854463493,5.67424461053345e-20
32375.0,2.6160807908588976e-17,7721.454819974447,0.010000000000000002,0.0005000000000000001,1.3706774707061114e-11,0.009318401370326714,0.9906815928166903,5.799276196729223e-09,2.686366139893509e-16,4.828097118632443e-06,0.9999951719028811,5.91960207642314e-20
